# record 0 of tracings (4096 samples x 12 leads), one row per sample
# I	II	III	aVR	aVL	aVF	V1	V2	V3	V4	V5	V6
0.000000	0.000000	0.000000	0.000000	0.000000	0.000000	0.000000	0.000000	0.000000	0.000000	0.000000	0.000000
0.000000	0.000000	0.000000	0.000000	0.000000	0.000000	0.000000	0.000000	0.000000	0.000000	0.000000	0.000000
0.000000	0.000000	0.000000	0.000000	0.000000	0.000000	0.000000	0.000000	0.000000	0.000000	0.000000	0.000000
0.000000	0.000000	0.000000	0.000000	0.000000	0.000000	0.000000	0.000000	0.000000	0.000000	0.000000	0.000000
0.000000	0.000000	0.000000	0.000000	0.000000	0.000000	0.000000	0.000000	0.000000	0.000000	0.000000	0.000000
0.000000	0.000000	0.000000	0.000000	0.000000	0.000000	0.000000	0.000000	0.000000	0.000000	0.000000	0.000000
0.000000	0.000000	0.000000	0.000000	0.000000	0.000000	0.000000	0.000000	0.000000	0.000000	0.000000	0.000000
0.000000	0.000000	0.000000	0.000000	0.000000	0.000000	0.000000	0.000000	0.000000	0.000000	0.000000	0.000000
0.000000	0.000000	0.000000	0.000000	0.000000	0.000000	0.000000	0.000000	0.000000	0.000000	0.000000	0.000000
0.000000	0.000000	0.000000	0.000000	0.000000	0.000000	0.000000	0.000000	0.000000	0.000000	0.000000	0.000000
0.000000	0.000000	0.000000	0.000000	0.000000	0.000000	0.000000	0.000000	0.000000	0.000000	0.000000	0.000000
0.000000	0.000000	0.000000	0.000000	0.000000	0.000000	0.000000	0.000000	0.000000	0.000000	0.000000	0.000000
0.000000	0.000000	0.000000	0.000000	0.000000	0.000000	0.000000	0.000000	0.000000	0.000000	0.000000	0.000000
0.000000	0.000000	0.000000	0.000000	0.000000	0.000000	0.000000	0.000000	0.000000	0.000000	0.000000	0.000000
0.000000	0.000000	0.000000	0.000000	0.000000	0.000000	0.000000	0.000000	0.000000	0.000000	0.000000	0.000000
0.000000	0.000000	0.000000	0.000000	0.000000	0.000000	0.000000	0.000000	0.000000	0.000000	0.000000	0.000000
0.000000	0.000000	0.000000	0.000000	0.000000	0.000000	0.000000	0.000000	0.000000	0.000000	0.000000	0.000000
0.000000	0.000000	0.000000	0.000000	0.000000	0.000000	0.000000	0.000000	0.000000	0.000000	0.000000	0.000000
0.000000	0.000000	0.000000	0.000000	0.000000	0.000000	0.000000	0.000000	0.000000	0.000000	0.000000	0.000000
0.000000	0.000000	0.000000	0.000000	0.000000	0.000000	0.000000	0.000000	0.000000	0.000000	0.000000	0.000000
0.000000	0.000000	0.000000	0.000000	0.000000	0.000000	0.000000	0.000000	0.000000	0.000000	0.000000	0.000000
0.000000	0.000000	0.000000	0.000000	0.000000	0.000000	0.000000	0.000000	0.000000	0.000000	0.000000	0.000000
0.000000	0.000000	0.000000	0.000000	0.000000	0.000000	0.000000	0.000000	0.000000	0.000000	0.000000	0.000000
0.000000	0.000000	0.000000	0.000000	0.000000	0.000000	0.000000	0.000000	0.000000	0.000000	0.000000	0.000000
0.000000	0.000000	0.000000	0.000000	0.000000	0.000000	0.000000	0.000000	0.000000	0.000000	0.000000	0.000000
0.000000	0.000000	0.000000	0.000000	0.000000	0.000000	0.000000	0.000000	0.000000	0.000000	0.000000	0.000000
0.000000	0.000000	0.000000	0.000000	0.000000	0.000000	0.000000	0.000000	0.000000	0.000000	0.000000	0.000000
0.000000	0.000000	0.000000	0.000000	0.000000	0.000000	0.000000	0.000000	0.000000	0.000000	0.000000	0.000000
0.000000	0.000000	0.000000	0.000000	0.000000	0.000000	0.000000	0.000000	0.000000	0.000000	0.000000	0.000000
0.000000	0.000000	0.000000	0.000000	0.000000	0.000000	0.000000	0.000000	0.000000	0.000000	0.000000	0.000000
0.000000	0.000000	0.000000	0.000000	0.000000	0.000000	0.000000	0.000000	0.000000	0.000000	0.000000	0.000000
0.000000	0.000000	0.000000	0.000000	0.000000	0.000000	0.000000	0.000000	0.000000	0.000000	0.000000	0.000000
0.000000	0.000000	0.000000	0.000000	0.000000	0.000000	0.000000	0.000000	0.000000	0.000000	0.000000	0.000000
0.000000	0.000000	0.000000	0.000000	0.000000	0.000000	0.000000	0.000000	0.000000	0.000000	0.000000	0.000000
0.000000	0.000000	0.000000	0.000000	0.000000	0.000000	0.000000	0.000000	0.000000	0.000000	0.000000	0.000000
0.000000	0.000000	0.000000	0.000000	0.000000	0.000000	0.000000	0.000000	0.000000	0.000000	0.000000	0.000000
0.000000	0.000000	0.000000	0.000000	0.000000	0.000000	0.000000	0.000000	0.000000	0.000000	0.000000	0.000000
0.000000	0.000000	0.000000	0.000000	0.000000	0.000000	0.000000	0.000000	0.000000	0.000000	0.000000	0.000000
0.000000	0.000000	0.000000	0.000000	0.000000	0.000000	0.000000	0.000000	0.000000	0.000000	0.000000	0.000000
0.000000	0.000000	0.000000	0.000000	0.000000	0.000000	0.000000	0.000000	0.000000	0.000000	0.000000	0.000000
0.000000	0.000000	0.000000	0.000000	0.000000	0.000000	0.000000	0.000000	0.000000	0.000000	0.000000	0.000000
0.000000	0.000000	0.000000	0.000000	0.000000	0.000000	0.000000	0.000000	0.000000	0.000000	0.000000	0.000000
0.000000	0.000000	0.000000	0.000000	0.000000	0.000000	0.000000	0.000000	0.000000	0.000000	0.000000	0.000000
0.000000	0.000000	0.000000	0.000000	0.000000	0.000000	0.000000	0.000000	0.000000	0.000000	0.000000	0.000000
0.000000	0.000000	0.000000	0.000000	0.000000	0.000000	0.000000	0.000000	0.000000	0.000000	0.000000	0.000000
0.000000	0.000000	0.000000	0.000000	0.000000	0.000000	0.000000	0.000000	0.000000	0.000000	0.000000	0.000000
0.000000	0.000000	0.000000	0.000000	0.000000	0.000000	0.000000	0.000000	0.000000	0.000000	0.000000	0.000000
0.000000	0.000000	0.000000	0.000000	0.000000	0.000000	0.000000	0.000000	0.000000	0.000000	0.000000	0.000000
-0.103445	-0.044989	0.058456	0.074217	-0.080951	0.006734	-0.058514	-0.035990	-0.004499	-0.031490	-0.031513	-0.067519
-0.118904	-0.051695	0.067210	0.085299	-0.093057	0.007758	-0.067153	-0.041358	-0.005157	-0.036192	-0.036159	-0.077483
-0.112900	-0.049097	0.063802	0.080999	-0.088351	0.007352	-0.063906	-0.039271	-0.004922	-0.034358	-0.034411	-0.073733
-0.116512	-0.050651	0.065861	0.083581	-0.091186	0.007605	-0.065707	-0.040549	-0.005038	-0.035489	-0.035384	-0.075824
-0.113810	-0.049503	0.064308	0.081656	-0.089059	0.007403	-0.064636	-0.039396	-0.004986	-0.034442	-0.034819	-0.074556
-0.116691	-0.050718	0.065973	0.083705	-0.091332	0.007627	-0.064827	-0.035810	-0.004981	-0.030774	-0.034713	-0.074894
-0.113523	-0.049810	0.063713	0.081666	-0.088618	0.006952	-0.059975	-0.034816	-0.005021	-0.029846	-0.030001	-0.069921
-0.106632	-0.045543	0.061089	0.076088	-0.083861	0.007773	-0.059617	-0.035182	-0.005480	-0.030163	-0.029596	-0.069662
-0.128332	-0.044989	0.083343	0.086661	-0.105838	0.019177	-0.060029	-0.034802	-0.009872	-0.029668	-0.030181	-0.070172
-0.125836	-0.044562	0.081274	0.085199	-0.103555	0.018356	-0.054998	-0.035515	-0.009572	-0.025606	-0.029504	-0.069503
-0.119776	-0.040136	0.079640	0.079956	-0.099708	0.019752	-0.055025	-0.034919	-0.010106	-0.024979	-0.025105	-0.065165
-0.120320	-0.039484	0.080836	0.079902	-0.100578	0.020676	-0.055042	-0.030467	-0.014482	-0.024995	-0.024579	-0.064481
-0.119398	-0.040054	0.079344	0.079726	-0.099371	0.019645	-0.049924	-0.029925	-0.015201	-0.025038	-0.024857	-0.065209
-0.110711	-0.034958	0.075753	0.072834	-0.093232	0.020398	-0.050519	-0.030035	-0.014539	-0.024548	-0.020498	-0.064460
-0.109913	-0.035011	0.074902	0.072462	-0.092407	0.019946	-0.049893	-0.029966	-0.015080	-0.020084	-0.020004	-0.060128
-0.110057	-0.035049	0.075008	0.072553	-0.092533	0.019979	-0.045481	-0.030093	-0.019573	-0.019529	-0.020038	-0.059569
-0.104991	-0.029926	0.075065	0.067458	-0.090028	0.022570	-0.044961	-0.029680	-0.020033	-0.020186	-0.019724	-0.059849
-0.104902	-0.030528	0.074373	0.067715	-0.089638	0.021923	-0.044579	-0.025598	-0.020092	-0.019496	-0.015538	-0.055500
-0.100607	-0.029879	0.070728	0.065243	-0.085668	0.020425	-0.040062	-0.024966	-0.019339	-0.015084	-0.015025	-0.055006
-0.095363	-0.025511	0.069852	0.060437	-0.082607	0.022170	-0.039594	-0.025029	-0.015108	-0.014584	-0.014951	-0.055058
-0.095035	-0.024898	0.070137	0.059967	-0.082586	0.022619	-0.039857	-0.024972	-0.009917	-0.015014	-0.014914	-0.054678
-0.094407	-0.025142	0.069266	0.059774	-0.081836	0.022062	-0.035506	-0.025090	-0.005512	-0.015390	-0.010017	-0.050595
-0.094967	-0.024299	0.070668	0.059633	-0.082818	0.023185	-0.034474	-0.024349	-0.004862	-0.014967	-0.009994	-0.049944
-0.115452	-0.020158	0.095294	0.067805	-0.105373	0.037568	-0.029824	-0.020075	-0.000541	-0.010470	-0.010005	-0.050097
-0.129518	-0.014893	0.114625	0.072206	-0.122072	0.049866	-0.029757	-0.014997	0.005102	-0.009714	-0.005053	-0.049653
-0.120586	-0.010213	0.110373	0.065399	-0.115479	0.050080	-0.029623	-0.009987	0.004898	-0.005544	-0.005087	-0.045612
-0.114352	-0.004342	0.110009	0.059347	-0.112181	0.052834	-0.025070	-0.005019	0.010094	-0.004491	-0.004924	-0.044932
-0.106286	-0.000227	0.106058	0.053257	-0.106172	0.052916	-0.024482	-0.000482	0.014915	0.000258	-0.004555	-0.045102
-0.104054	0.000382	0.104436	0.051836	-0.104245	0.052409	-0.025034	0.000149	0.015221	0.000000	-0.000099	-0.044657
-0.090829	0.009956	0.100784	0.040436	-0.095807	0.055370	-0.019892	0.005419	0.019515	-0.000284	-0.000450	-0.040606
-0.079228	0.020022	0.099251	0.029603	-0.089240	0.059636	-0.020070	0.009943	0.019960	0.004505	0.000111	-0.039939
-0.065728	0.029999	0.095726	0.017864	-0.080727	0.062863	-0.019891	0.010479	0.020079	0.005513	0.004462	-0.040089
-0.054541	0.040047	0.094588	0.007247	-0.074564	0.067318	-0.015169	0.014942	0.019894	0.009737	0.005201	-0.039677
-0.040743	0.049834	0.090577	-0.004545	-0.065660	0.070206	-0.014585	0.019908	0.020121	0.010407	0.004500	-0.035580
-0.034966	0.054951	0.089918	-0.009992	-0.062442	0.072434	-0.015688	0.020027	0.019833	0.015080	0.005097	-0.034982
-0.035036	0.050353	0.085389	-0.007659	-0.060212	0.067871	-0.029674	0.014809	0.020255	0.014611	0.009512	-0.034995
-0.035163	0.044966	0.080129	-0.004902	-0.057646	0.062548	-0.044840	0.010417	0.019539	0.015162	0.010109	-0.035037
-0.039510	0.039898	0.079409	-0.000194	-0.059459	0.059653	-0.060839	0.009315	0.021192	0.024538	0.009650	-0.034544
-0.040065	0.035632	0.075696	0.002217	-0.057881	0.055664	-0.074300	0.005174	0.018861	0.029979	0.010038	-0.030097
-0.045349	0.029640	0.074989	0.007854	-0.060169	0.052314	-0.070177	-0.000282	0.016988	0.035018	0.019807	-0.029516
-0.044410	0.025958	0.070367	0.009226	-0.057388	0.048163	-0.069660	0.000103	0.052988	0.040072	0.025404	-0.030211
-0.009740	0.054261	0.064001	-0.022260	-0.036871	0.059131	-0.070147	0.009891	0.051726	0.044500	0.029833	-0.029439
-0.021954	0.044516	0.066470	-0.011281	-0.044212	0.055493	-0.069991	0.015605	0.048871	0.045024	0.035113	-0.025147
-0.015889	0.041654	0.057544	-0.012882	-0.036716	0.049599	-0.069487	0.019884	0.050546	0.045040	0.040010	-0.024466
0.029982	0.092751	0.062769	-0.061367	-0.016393	0.077760	-0.065289	0.024804	0.044661	0.045012	0.044688	-0.025123
-0.035217	0.087412	0.122629	-0.026097	-0.078923	0.105021	-0.064956	0.019629	0.045748	0.045044	0.040237	-0.024948
-0.023158	0.073862	0.097019	-0.025352	-0.060088	0.085441	-0.065048	0.015016	0.044752	0.045017	0.039381	-0.024378
-0.004168	0.065615	0.069783	-0.030724	-0.036975	0.067699	-0.064994	0.014698	0.040644	0.045053	0.040228	-0.020032
0.006241	0.054490	0.048249	-0.030365	-0.021004	0.051370	-0.065018	0.009725	0.039794	0.044959	0.039875	-0.014946
0.013008	0.046189	0.033181	-0.029599	-0.010086	0.039685	-0.064566	0.005115	0.040498	0.045400	0.040463	-0.009864
-0.057090	0.033965	0.091055	0.011563	-0.074073	0.062510	-0.060059	0.005120	0.039841	0.044393	0.039353	-0.010546
-0.086049	0.006153	0.092202	0.039948	-0.089125	0.049178	-0.059598	-0.004942	0.030459	0.030159	0.025189	-0.034813
-0.109576	-0.020807	0.088768	0.065191	-0.099172	0.033980	-0.059986	-0.010137	0.019818	0.019869	0.014856	-0.054135
-0.140267	-0.048857	0.091410	0.094562	-0.115839	0.021277	-0.060374	-0.014546	0.010177	0.010361	0.005379	-0.066315
-0.144999	-0.055486	0.089513	0.100242	-0.117256	0.017014	-0.060002	-0.025154	-0.000231	-0.004605	-0.009623	-0.093750
-0.145386	-0.055054	0.090332	0.100220	-0.117859	0.017639	-0.055401	-0.030349	-0.009154	-0.014879	-0.019860	-0.091048
-0.144353	-0.054619	0.089733	0.099486	-0.117043	0.017557	-0.054973	-0.035000	-0.015751	-0.025162	-0.030186	-0.089400
-0.146357	-0.056167	0.090190	0.101262	-0.118273	0.017011	-0.054958	-0.039561	-0.019151	-0.030221	-0.035182	-0.090287
-0.159311	-0.069391	0.089920	0.114351	-0.124616	0.010265	-0.055069	-0.039948	-0.021291	-0.029928	-0.034988	-0.089885
-0.155825	-0.065696	0.090129	0.110761	-0.122977	0.012217	-0.054899	-0.040147	-0.038816	-0.030084	-0.034989	-0.090131
-0.154423	-0.064474	0.089949	0.109449	-0.122186	0.012737	-0.055294	-0.039805	-0.036053	-0.029983	-0.035152	-0.089989
-0.155339	-0.065281	0.090058	0.110310	-0.122699	0.012388	-0.059413	-0.040545	-0.034654	-0.030059	-0.034562	-0.089618
-0.154790	-0.064882	0.089909	0.109836	-0.122349	0.012513	-0.060053	-0.039868	-0.035218	-0.029957	-0.035086	-0.085082
-0.155367	-0.064575	0.090792	0.109971	-0.123079	0.013108	-0.059990	-0.035566	-0.034893	-0.030627	-0.039567	-0.084557
-0.149764	-0.060159	0.089605	0.104961	-0.119684	0.014723	-0.059980	-0.034783	-0.035091	-0.034666	-0.040042	-0.085122
-0.135187	-0.060085	0.075102	0.097636	-0.105144	0.007509	-0.060013	-0.035491	-0.034950	-0.035133	-0.039999	-0.084927
-0.124342	-0.059859	0.064484	0.092100	-0.094413	0.002313	-0.059988	-0.034927	-0.035054	-0.034921	-0.039990	-0.085049
-0.115252	-0.060294	0.054958	0.087773	-0.085105	-0.002668	-0.060608	-0.030471	-0.034980	-0.035108	-0.040567	-0.085043
-0.104646	-0.059352	0.045293	0.081999	-0.074969	-0.007029	-0.064675	-0.029963	-0.035016	-0.034830	-0.044701	-0.084670
-0.100224	-0.065752	0.034472	0.082988	-0.067348	-0.015640	-0.065156	-0.030030	-0.034977	-0.035429	-0.045016	-0.080526
-0.109614	-0.084424	0.025189	0.097019	-0.067402	-0.029617	-0.064936	-0.030070	-0.035060	-0.035011	-0.045071	-0.080019
-0.140697	-0.075359	0.065337	0.108028	-0.103017	-0.005011	-0.065162	-0.029479	-0.034987	-0.030344	-0.044866	-0.079957
-0.178904	-0.064900	0.114004	0.121902	-0.146454	0.024552	-0.064860	-0.025450	-0.035184	-0.030255	-0.045464	-0.080047
-0.171192	-0.059612	0.111580	0.115402	-0.141386	0.025984	-0.065582	-0.025049	-0.034994	-0.029304	-0.049291	-0.079936
-0.159457	-0.050114	0.109343	0.104785	-0.134400	0.029615	-0.064170	-0.025077	-0.035275	-0.025999	-0.050387	-0.080171
-0.149878	-0.039778	0.110099	0.094828	-0.129988	0.035160	-0.050572	-0.025775	-0.034835	-0.024618	-0.049606	-0.079884
-0.145717	-0.035571	0.110146	0.090644	-0.127932	0.037288	-0.034566	-0.024812	-0.035775	-0.026195	-0.051118	-0.080215
-0.164072	-0.054247	0.109825	0.109159	-0.136949	0.027789	-0.019958	0.000062	-0.033868	-0.029241	-0.048783	-0.079860
-0.201656	-0.091158	0.110498	0.146407	-0.156077	0.009670	-0.010209	0.024382	-0.036616	-0.037286	-0.052148	-0.106278
-0.217931	-0.108507	0.109424	0.163219	-0.163677	0.000458	0.009780	0.045681	-0.033404	-0.057760	-0.077419	-0.139043
-0.178501	-0.067097	0.111404	0.122799	-0.144952	0.022154	0.024637	0.114733	0.028429	-0.017193	-0.057811	-0.121775
-0.131712	-0.023831	0.107880	0.077772	-0.119796	0.042024	0.051257	0.190617	0.091397	0.026186	-0.027804	-0.098869
-0.080174	0.033573	0.113747	0.023300	-0.096960	0.073660	0.078329	0.260259	0.169006	0.084374	0.027329	-0.060764
-0.049512	0.097087	0.146600	-0.023788	-0.098056	0.121844	0.072716	0.325258	0.265754	0.175447	0.092249	-0.019439
0.008525	0.142747	0.134222	-0.075636	-0.062848	0.138484	0.062930	0.382144	0.369970	0.274795	0.178400	0.029106
0.067545	0.177739	0.110193	-0.122642	-0.021324	0.143966	0.008156	0.398633	0.440460	0.360517	0.251465	0.080521
0.233139	0.247485	0.014345	-0.240312	0.109397	0.130915	-0.052037	0.322468	0.486363	0.435264	0.329347	0.145017
0.303861	0.266942	-0.036920	-0.285402	0.170391	0.115011	-0.153157	0.239591	0.513690	0.495428	0.395069	0.209595
0.362971	0.284494	-0.078477	-0.323732	0.220724	0.103008	-0.260774	0.110797	0.482169	0.520034	0.450550	0.265470
0.493286	0.336100	-0.157186	-0.414693	0.325236	0.089457	-0.349757	-0.038270	0.448854	0.521137	0.504331	0.334720
0.550761	0.410703	-0.140058	-0.480732	0.345410	0.135322	-0.425215	-0.207521	0.381401	0.520916	0.547303	0.400695
0.532050	0.387600	-0.144450	-0.459825	0.338250	0.121575	-0.510132	-0.457323	0.182030	0.391987	0.506383	0.420233
0.483169	0.243623	-0.239547	-0.363396	0.361358	0.002038	-0.599411	-0.758273	-0.126789	0.148717	0.358895	0.380756
0.286977	0.187789	-0.099188	-0.237383	0.193083	0.044301	-0.671524	-1.138458	-0.338042	0.012189	0.302188	0.340154
0.175698	0.141663	-0.034035	-0.158681	0.104867	0.053814	-0.713913	-1.370702	-0.457787	-0.083198	0.256637	0.330349
0.077524	0.079319	0.001795	-0.078421	0.037865	0.040557	-0.702670	-1.397165	-0.527545	-0.162397	0.184173	0.319381
-0.006329	0.020410	0.026739	-0.007041	-0.016534	0.023574	-0.688411	-1.334529	-0.567971	-0.233882	0.120855	0.275832
-0.008207	0.000850	0.009058	0.003679	-0.008632	0.004954	-0.641872	-1.217302	-0.568674	-0.276464	0.063606	0.234874
-0.017576	-0.022016	-0.004441	0.019796	-0.006567	-0.013228	-0.594348	-1.119453	-0.556537	-0.293747	0.016095	0.190266
-0.062835	-0.083176	-0.020341	0.073005	-0.021247	-0.051759	-0.555916	-1.021738	-0.519142	-0.287196	0.004351	0.145270
-0.051562	-0.081756	-0.030194	0.066659	-0.010684	-0.055975	-0.514054	-0.873673	-0.471234	-0.274230	-0.004900	0.114647
-0.080568	-0.074703	0.005865	0.077636	-0.043217	-0.034419	-0.435731	-0.677446	-0.353893	-0.226020	-0.015465	0.085116
-0.112433	-0.075431	0.037002	0.093932	-0.074718	-0.019215	-0.359551	-0.549108	-0.287062	-0.175108	-0.019906	0.054462
-0.108745	-0.070366	0.038379	0.089555	-0.073562	-0.015993	-0.289368	-0.444481	-0.232140	-0.154679	-0.045395	0.024834
-0.161675	-0.069955	0.091720	0.115815	-0.126698	0.010882	-0.220336	-0.335284	-0.188389	-0.139985	-0.074330	0.004656
-0.152627	-0.064879	0.087747	0.108753	-0.120187	0.011434	-0.174016	-0.259127	-0.150879	-0.120101	-0.071068	-0.014974
-0.133298	-0.059562	0.073736	0.096430	-0.103517	0.007087	-0.130844	-0.190806	-0.108507	-0.105083	-0.069293	-0.035485
-0.126615	-0.061108	0.065507	0.093861	-0.096061	0.002200	-0.089404	-0.133365	-0.070484	-0.095008	-0.070343	-0.054865
-0.108380	-0.053593	0.054787	0.080986	-0.081583	0.000597	-0.055258	-0.080513	-0.054226	-0.085037	-0.069617	-0.059761
-0.102747	-0.057866	0.044881	0.080306	-0.073814	-0.006492	-0.044545	-0.063959	-0.044726	-0.079790	-0.065662	-0.060518
-0.121926	-0.080766	0.041160	0.101346	-0.081543	-0.019803	-0.040087	-0.055171	-0.029832	-0.070618	-0.064966	-0.068866
-0.144440	-0.084847	0.059593	0.114643	-0.102016	-0.012627	-0.034754	-0.040014	-0.020051	-0.060302	-0.065045	-0.076353
-0.206175	-0.140731	0.065445	0.173453	-0.135810	-0.037643	-0.029899	-0.029854	-0.014849	-0.054941	-0.065035	-0.094095
-0.162487	-0.097665	0.064822	0.130076	-0.113655	-0.016422	-0.024879	-0.019814	-0.009965	-0.049951	-0.064572	-0.091154
-0.114298	-0.049263	0.065034	0.081781	-0.089666	0.007885	-0.019984	-0.009994	-0.004915	-0.045026	-0.060095	-0.089218
-0.120339	-0.055189	0.065150	0.087764	-0.092745	0.004981	-0.015461	0.000095	-0.000060	-0.040477	-0.059524	-0.090302
-0.118941	-0.054656	0.064285	0.086799	-0.091613	0.004814	-0.014849	0.010118	0.005388	-0.039795	-0.060181	-0.089851
-0.121668	-0.055686	0.065982	0.088677	-0.093825	0.005148	-0.015008	0.019964	0.009780	-0.034642	-0.059481	-0.090110
-0.143148	-0.053785	0.089362	0.098467	-0.116255	0.017788	-0.015011	0.029979	0.004989	-0.029970	-0.055114	-0.089996
-0.167681	-0.071825	0.095856	0.119753	-0.131769	0.012015	-0.014420	0.034969	0.004605	-0.029686	-0.054559	-0.089486
-0.212649	-0.117982	0.094667	0.165315	-0.153658	-0.011657	-0.010291	0.034934	0.005146	-0.024693	-0.055031	-0.085252
-0.201672	-0.106437	0.095235	0.154054	-0.148453	-0.005601	-0.009919	0.035500	0.004940	-0.019866	-0.055345	-0.084967
-0.189105	-0.094175	0.094930	0.141640	-0.142018	0.000378	-0.010033	0.039948	0.005046	-0.019414	-0.055042	-0.085011
-0.180204	-0.085169	0.095035	0.132686	-0.137619	0.004933	-0.009981	0.040430	0.004975	-0.015550	-0.050345	-0.085063
-0.165135	-0.070099	0.095036	0.117617	-0.130086	0.012468	-0.010035	0.040143	0.005016	-0.014889	-0.050109	-0.084824
-0.154497	-0.059584	0.094913	0.107040	-0.124705	0.017664	-0.009570	0.044520	0.004982	-0.015027	-0.049363	-0.085471
-0.146052	-0.050837	0.095215	0.098444	-0.120634	0.022189	-0.005037	0.044999	0.005013	-0.014987	-0.045719	-0.084945
-0.149217	-0.054409	0.094808	0.101813	-0.122012	0.020199	-0.004608	0.045028	0.004984	-0.014998	-0.044902	-0.080462
-0.150959	-0.056142	0.094816	0.103550	-0.122888	0.019337	-0.005005	0.044982	0.005009	-0.015031	-0.045065	-0.079908
-0.133684	-0.053659	0.080025	0.093671	-0.106854	0.013183	-0.005386	0.044991	0.004987	-0.014550	-0.044533	-0.080038
-0.128423	-0.056971	0.071452	0.092697	-0.099938	0.007241	-0.004982	0.045045	0.005002	-0.010077	-0.040102	-0.079972
-0.119991	-0.088114	0.031877	0.104052	-0.075934	-0.028119	-0.000412	0.044908	0.005520	-0.009531	-0.039515	-0.080088
-0.096289	-0.086082	0.010207	0.091186	-0.053248	-0.037937	-0.000001	0.045473	0.009941	-0.010146	-0.040192	-0.079809
-0.193985	-0.084222	0.109763	0.139104	-0.151874	0.012770	0.000036	0.054239	0.014994	-0.009930	-0.039469	-0.080476
-0.173321	-0.085307	0.088014	0.129314	-0.130667	0.001353	-0.000054	0.055674	0.019907	-0.010025	-0.035125	-0.079948
-0.139428	-0.080313	0.059115	0.109870	-0.099271	-0.010599	0.000066	0.054844	0.020017	-0.010018	-0.034525	-0.075426
-0.169155	-0.079942	0.089213	0.124549	-0.129184	0.004636	0.000029	0.055029	0.014816	-0.009733	-0.034904	-0.074951
-0.150958	-0.080392	0.070566	0.115675	-0.110762	-0.004913	0.005461	0.055003	0.010663	-0.005494	-0.030382	-0.074940
-0.130096	-0.080017	0.050080	0.105057	-0.090088	-0.014969	0.009914	0.054954	0.009292	-0.005069	-0.030152	-0.075105
-0.094611	-0.075424	0.019186	0.085018	-0.056899	-0.028119	0.010487	0.055129	0.005615	-0.004847	-0.029803	-0.074869
-0.065707	-0.074967	-0.009260	0.070337	-0.028223	-0.042113	0.014924	0.054724	0.004780	-0.005208	-0.030064	-0.075157
-0.114588	-0.075054	0.039534	0.094821	-0.077061	-0.017760	0.019905	0.055654	-0.000329	-0.004624	-0.024756	-0.074669
-0.164489	-0.074376	0.090113	0.119433	-0.127301	0.007868	0.020027	0.054428	-0.005042	-0.005962	-0.025416	-0.075914
-0.150321	-0.070555	0.079766	0.110438	-0.115043	0.004605	0.014789	0.056122	-0.005336	-0.004136	-0.023596	-0.074273
-0.139849	-0.069983	0.069866	0.104916	-0.104857	-0.000058	0.010428	0.078617	-0.010107	-0.006669	-0.026467	-0.076188
-0.129528	-0.069436	0.060092	0.099482	-0.094810	-0.004672	0.009277	0.076229	-0.010174	-0.033535	-0.058656	-0.098311
-0.116147	-0.065684	0.050462	0.090916	-0.083304	-0.007611	0.005216	0.074151	-0.005595	-0.031152	-0.056050	-0.096322
-0.102369	-0.064927	0.037442	0.083648	-0.069906	-0.013742	-0.000362	0.075306	-0.004422	-0.028849	-0.054530	-0.094245
-0.103209	-0.065017	0.038192	0.084113	-0.070700	-0.013412	0.000221	0.074817	-0.000341	-0.025406	-0.055538	-0.095174
-0.172108	-0.064548	0.107560	0.118328	-0.139834	0.021506	0.009483	0.075109	0.000491	-0.025262	-0.049721	-0.089888
-0.140993	-0.060079	0.080914	0.100536	-0.110954	0.010418	0.014984	0.074946	0.004927	-0.025069	-0.050180	-0.090089
-0.116533	-0.059551	0.056982	0.088042	-0.086758	-0.001284	0.020013	0.075055	0.005404	-0.020361	-0.049953	-0.090016
-0.163161	-0.060136	0.103026	0.111648	-0.133093	0.021445	0.025008	0.074922	0.005131	-0.020088	-0.045013	-0.084952
-0.161450	-0.059554	0.101895	0.110502	-0.131673	0.021171	0.029608	0.075036	0.009467	-0.019487	-0.045475	-0.085498
-0.153380	-0.054807	0.098573	0.104094	-0.125976	0.021883	0.029436	0.074973	0.010617	-0.015163	-0.044936	-0.084933
-0.146254	-0.050465	0.095789	0.098359	-0.121021	0.022662	0.030117	0.075052	0.014468	-0.014452	-0.040447	-0.080453
-0.138787	-0.043873	0.094914	0.091330	-0.116851	0.025521	0.034972	0.074866	0.015192	-0.015084	-0.039995	-0.079982
-0.141430	-0.047080	0.094350	0.094255	-0.117890	0.023635	0.034584	0.075135	0.019954	-0.009913	-0.039525	-0.079524
-0.168045	-0.078689	0.089355	0.123367	-0.128700	0.005333	0.035046	0.075106	0.020030	-0.010059	-0.035142	-0.075154
-0.161191	-0.071285	0.089906	0.116238	-0.125549	0.009311	0.039659	0.085725	0.020020	-0.009948	-0.034466	-0.074467
-0.149223	-0.059598	0.089625	0.104410	-0.119424	0.015013	0.039870	0.109240	0.024866	-0.005105	-0.035094	-0.075074
-0.140386	-0.054649	0.085737	0.097518	-0.113062	0.015544	0.040520	0.110563	0.025427	-0.005027	-0.029916	-0.069918
-0.129945	-0.045109	0.084836	0.087527	-0.107391	0.019864	0.039884	0.109181	0.029969	-0.004982	-0.030082	-0.070085
-0.119862	-0.034607	0.085255	0.077234	-0.102559	0.025324	0.035533	0.110368	0.029910	-0.005006	-0.029945	-0.069956
-0.110600	-0.030423	0.080177	0.070512	-0.095389	0.024877	0.034628	0.109587	0.025038	-0.005022	-0.025137	-0.065093
-0.109148	-0.029502	0.079646	0.069325	-0.094397	0.025072	0.030600	0.110677	0.025362	-0.004976	-0.024974	-0.065040
-0.111564	-0.031086	0.080478	0.071325	-0.096021	0.024696	0.029368	0.109472	0.025048	-0.005075	-0.025453	-0.065009
-0.118126	-0.053695	0.064431	0.085910	-0.091279	0.005368	0.025514	0.111029	0.020244	-0.004878	-0.025153	-0.064488
-0.101599	-0.046061	0.055538	0.073830	-0.078569	0.004739	0.024799	0.133764	0.020216	-0.005358	-0.015272	-0.060074
-0.077658	-0.034606	0.043052	0.056132	-0.060355	0.004223	0.020195	0.130947	0.019649	-0.004749	-0.010381	-0.054980
-0.057633	-0.025194	0.032438	0.041413	-0.045036	0.003622	0.020485	0.129453	0.025935	0.004993	-0.004955	-0.050022
-0.030606	-0.014910	0.015695	0.022758	-0.023150	0.000392	0.013132	0.124418	0.028071	0.010450	0.004556	-0.045007
-0.020169	-0.004941	0.015228	0.012555	-0.017699	0.005144	0.017025	0.126304	0.022525	0.014809	0.010067	-0.039957
-0.114495	-0.000175	0.114319	0.057335	-0.114407	0.057072	0.062360	0.168356	0.067813	0.020144	0.014971	-0.035037
-0.123331	-0.004642	0.118689	0.063986	-0.121010	0.057024	0.061788	0.176002	0.076832	0.024827	0.019862	-0.030133
-0.117399	-0.005287	0.112112	0.061343	-0.114755	0.053413	0.058661	0.174348	0.073975	0.030249	0.020579	-0.029455
-0.126429	-0.010202	0.116226	0.068315	-0.121327	0.053012	0.060523	0.174998	0.075521	0.034444	0.019846	-0.030100
-0.123110	-0.009268	0.113841	0.066189	-0.118476	0.052287	0.059711	0.175497	0.079754	0.035754	0.025150	-0.024908
-0.126667	-0.016039	0.110629	0.071353	-0.118648	0.047295	0.060218	0.174534	0.080117	0.034300	0.024837	-0.025092
-0.121858	-0.012703	0.109155	0.067281	-0.115507	0.048226	0.059891	0.176114	0.080049	0.036303	0.025206	-0.024931
-0.082364	0.028252	0.110616	0.027056	-0.096490	0.069434	0.060080	0.198498	0.084677	0.053964	0.029571	-0.020168
-0.114150	-0.004062	0.110088	0.059106	-0.112119	0.053013	0.059976	0.196379	0.085641	0.045738	0.030682	-0.019942
-0.139269	-0.034106	0.105162	0.086688	-0.122215	0.035528	0.060024	0.194368	0.083952	0.039575	0.028937	-0.020535
-0.105666	-0.001177	0.104489	0.053422	-0.105078	0.051656	0.060066	0.211648	0.087168	0.055325	0.031553	-0.019517
-0.069163	0.035990	0.105152	0.016586	-0.087157	0.070571	0.059675	0.248347	0.123448	0.084774	0.063890	-0.005582
-0.046226	0.058685	0.104911	-0.006230	-0.075568	0.081798	0.055580	0.245959	0.126312	0.089861	0.065576	0.005153
-0.038337	0.066230	0.104567	-0.013946	-0.071452	0.085398	0.054982	0.244582	0.124773	0.090444	0.064792	0.014909
-0.016044	0.083702	0.099746	-0.033829	-0.057895	0.091724	0.055001	0.239345	0.124878	0.114286	0.084687	0.025050
-0.018895	0.080893	0.099788	-0.030999	-0.059342	0.090341	0.054978	0.241130	0.125478	0.120517	0.094970	0.034949
-0.026076	0.073912	0.099988	-0.023918	-0.063032	0.086950	0.054998	0.268799	0.148967	0.125232	0.100426	0.044845
-0.023611	0.075969	0.099580	-0.026179	-0.061596	0.087774	0.055019	0.266065	0.154951	0.130079	0.109960	0.050127
-0.026017	0.068594	0.094611	-0.021288	-0.060314	0.081602	0.055001	0.264532	0.154993	0.130471	0.115497	0.049602
-0.028438	0.066703	0.095141	-0.019133	-0.061789	0.080922	0.054981	0.265008	0.159921	0.134574	0.119778	0.055137
-0.032528	0.062537	0.095065	-0.015005	-0.063796	0.078801	0.055051	0.265388	0.160307	0.135093	0.125382	0.064368
-0.031763	0.064378	0.096141	-0.016307	-0.063952	0.080259	0.054590	0.265118	0.165256	0.145369	0.130233	0.070817
0.012107	0.104406	0.092299	-0.058256	-0.040096	0.098352	0.054805	0.260385	0.164433	0.149874	0.129872	0.079166
0.032312	0.099927	0.067615	-0.066120	-0.017651	0.083771	0.064987	0.260019	0.166006	0.160668	0.145160	0.086254
0.037884	0.150380	0.112495	-0.094132	-0.037305	0.131437	0.069356	0.259895	0.188826	0.179425	0.169297	0.109262
0.048744	0.153604	0.104861	-0.101174	-0.028059	0.129233	0.059960	0.260662	0.186237	0.175458	0.175356	0.115661
0.044597	0.148200	0.103603	-0.096399	-0.029503	0.125902	0.054641	0.260053	0.179786	0.174646	0.179793	0.114213
-0.035546	0.146325	0.181871	-0.055390	-0.108708	0.164098	0.050091	0.250259	0.179980	0.174967	0.175102	0.110449
-0.007811	0.144749	0.152560	-0.068469	-0.080185	0.148654	0.044980	0.239907	0.175344	0.175430	0.169697	0.109868
0.025281	0.145481	0.120200	-0.085381	-0.047459	0.132840	0.040020	0.230188	0.175114	0.175050	0.169650	0.110126
0.037049	0.140190	0.103140	-0.088619	-0.033045	0.121665	0.035026	0.219910	0.170356	0.170440	0.165446	0.110038
0.047582	0.140041	0.092459	-0.093812	-0.022439	0.116250	0.029899	0.210135	0.165169	0.170008	0.164963	0.109766
-0.007416	0.135035	0.142451	-0.063810	-0.074934	0.138743	0.025580	0.199375	0.164479	0.169946	0.159534	0.105563
-0.006550	0.134990	0.141540	-0.064220	-0.074045	0.138265	0.024356	0.185806	0.160660	0.170588	0.155252	0.105080
0.000287	0.134714	0.134427	-0.067500	-0.067070	0.134570	0.020546	0.174318	0.159592	0.169574	0.154368	0.104928
-0.010356	0.120321	0.130677	-0.054983	-0.070517	0.125499	0.019822	0.160340	0.150414	0.155398	0.150639	0.105303
-0.014314	0.110335	0.124649	-0.048010	-0.069481	0.117492	0.014604	0.149457	0.139802	0.145311	0.149417	0.104652
-0.020230	0.100053	0.120283	-0.039912	-0.070256	0.110168	0.010059	0.135147	0.130216	0.135071	0.136313	0.090616
-0.029466	0.085351	0.114818	-0.027943	-0.072142	0.100085	0.009504	0.124539	0.119812	0.120382	0.124227	0.079500
-0.035141	0.075046	0.110187	-0.019952	-0.072664	0.092616	0.005290	0.114837	0.110384	0.109995	0.110427	0.069924
-0.045262	0.065014	0.110277	-0.009876	-0.077770	0.087645	0.004480	0.100454	0.104275	0.099906	0.099416	0.055442
-0.050020	0.060159	0.110179	-0.005069	-0.080100	0.085169	0.000127	0.090079	0.095833	0.090722	0.085194	0.045114
-0.045220	0.059382	0.104602	-0.007081	-0.074911	0.081992	-0.000524	0.079891	0.089236	0.084893	0.074457	0.034839
-0.049442	0.055435	0.104877	-0.002997	-0.077160	0.080156	0.000067	0.070192	0.080463	0.080006	0.065128	0.025362
-0.050205	0.054245	0.104450	-0.002020	-0.077327	0.079347	-0.005053	0.064942	0.074254	0.074978	0.055328	0.019305
-0.049403	0.051273	0.100676	-0.000935	-0.075039	0.075974	-0.004996	0.060030	0.065795	0.070050	0.050012	0.010744
-0.050560	0.049409	0.099969	0.000575	-0.075264	0.074689	-0.004962	0.054976	0.059285	0.064435	0.040364	0.004304
-0.064156	0.035592	0.099748	0.014282	-0.081952	0.067670	-0.010060	0.049985	0.050320	0.055078	0.030031	-0.004693
-0.070738	0.024682	0.095419	0.023028	-0.083079	0.060051	-0.009488	0.044633	0.044885	0.044948	0.025016	-0.010091
-0.085076	0.010521	0.095597	0.037277	-0.090337	0.053059	-0.010118	0.034366	0.040050	0.035032	0.019976	-0.014994
-0.094607	0.000269	0.094876	0.047169	-0.094742	0.047573	-0.014536	0.025195	0.034967	0.024946	0.014993	-0.020021
-0.069509	0.020535	0.090044	0.024487	-0.079776	0.055289	-0.014995	0.019752	0.029953	0.015149	0.009940	-0.024882
-0.055586	0.034557	0.090143	0.010515	-0.072864	0.062350	-0.015469	0.010080	0.025030	0.009997	0.005426	-0.025074
-0.104502	-0.015303	0.089199	0.059902	-0.096851	0.036948	-0.019886	0.000056	0.020114	0.005118	0.004959	-0.029938
-0.150114	-0.064296	0.085818	0.107205	-0.117966	0.010761	-0.020530	-0.004975	0.019459	0.004448	0.000381	-0.035116
-0.150169	-0.065776	0.084393	0.107972	-0.117281	0.009309	-0.019913	-0.004942	0.020054	0.005053	-0.005027	-0.034889
-0.149788	-0.064830	0.084958	0.107309	-0.117373	0.010064	-0.025085	-0.005079	0.014940	-0.000068	-0.010380	-0.040567
-0.149240	-0.065120	0.084119	0.107180	-0.116680	0.009500	-0.024957	-0.004945	0.015007	0.000000	-0.015009	-0.044837
-0.151428	-0.064996	0.086431	0.108212	-0.118929	0.010717	-0.025049	-0.005101	0.015036	0.000029	-0.015378	-0.045600
-0.183629	-0.065020	0.118609	0.124324	-0.151119	0.026795	-0.029902	-0.004792	0.009927	-0.005073	-0.020057	-0.049585
-0.165625	-0.065030	0.100595	0.115328	-0.133110	0.017782	-0.029963	-0.004840	0.010510	-0.004492	-0.024879	-0.050692
-0.150909	-0.064994	0.085915	0.107952	-0.118412	0.010460	-0.030082	-0.015040	0.009888	-0.005118	-0.030025	-0.054279
-0.179388	-0.065087	0.114301	0.122238	-0.146845	0.024607	-0.029397	-0.024596	0.005462	-0.009537	-0.029848	-0.055681
-0.180583	-0.065036	0.115547	0.122809	-0.148065	0.025256	-0.025333	-0.020534	0.005000	-0.009996	-0.025221	-0.059647
-0.179913	-0.065542	0.114371	0.122727	-0.147142	0.024415	-0.024901	-0.019853	0.004528	-0.010471	-0.024888	-0.060108
-0.169710	-0.053793	0.115917	0.111752	-0.142814	0.031062	-0.025065	-0.020079	0.000131	-0.014876	-0.025195	-0.059969
-0.166572	-0.051889	0.114684	0.109230	-0.140628	0.031398	-0.024944	-0.019953	-0.000523	-0.015529	-0.024576	-0.060040
-0.198649	-0.083457	0.115192	0.141053	-0.156921	0.015868	-0.025036	-0.020020	0.000099	-0.014895	-0.030692	-0.059965
-0.196314	-0.081470	0.114844	0.138892	-0.155579	0.016687	-0.024924	-0.019971	-0.005072	-0.020085	-0.048933	-0.060014
-0.189841	-0.074653	0.115188	0.132247	-0.152514	0.020268	-0.025102	-0.020026	-0.004948	-0.019941	-0.046239	-0.060014
-0.189674	-0.074826	0.114847	0.132250	-0.152260	0.020010	-0.024847	-0.019973	-0.005033	-0.020056	-0.044282	-0.060012
-0.185122	-0.069924	0.115197	0.127523	-0.150160	0.022636	-0.025237	-0.020051	-0.009898	-0.024865	-0.045282	-0.059935
-0.184481	-0.070141	0.114340	0.127311	-0.149410	0.022099	-0.024195	-0.019557	-0.009990	-0.025034	-0.044844	-0.060456
-0.175042	-0.064841	0.110202	0.119941	-0.142622	0.022681	-0.020980	-0.014644	-0.009592	-0.024548	-0.045119	-0.064940
-0.165495	-0.060231	0.105264	0.112863	-0.135379	0.022516	-0.019327	-0.015350	-0.010814	-0.025412	-0.044947	-0.065478
-0.169076	-0.059529	0.109547	0.114302	-0.139312	0.025009	-0.026204	-0.035088	-0.029944	-0.039528	-0.045030	-0.064817
-0.165635	-0.055927	0.109708	0.110781	-0.137671	0.026891	-0.049112	-0.049946	-0.045034	-0.045418	-0.045000	-0.065090
-0.163808	-0.053764	0.110044	0.108786	-0.136926	0.028140	-0.046144	-0.045468	-0.040415	-0.044815	-0.044997	-0.064968
-0.176129	-0.061567	0.114562	0.118848	-0.145345	0.026497	-0.043831	-0.044514	-0.039556	-0.045132	-0.045074	-0.065035
-0.203772	-0.088678	0.115094	0.146225	-0.159433	0.013208	-0.040422	-0.045206	-0.040186	-0.044914	-0.044677	-0.064962
-0.200613	-0.086168	0.114445	0.143391	-0.157529	0.014138	-0.040235	-0.044477	-0.039497	-0.045058	-0.040581	-0.065012
-0.194802	-0.084165	0.110636	0.139483	-0.152719	0.013236	-0.040103	-0.040147	-0.035136	-0.044984	-0.039976	-0.065017
-0.194891	-0.085366	0.109525	0.140129	-0.152208	0.012079	-0.035343	-0.039503	-0.034511	-0.045026	-0.040010	-0.065002
-0.189499	-0.084513	0.104986	0.137006	-0.147243	0.010237	-0.034908	-0.040219	-0.035219	-0.044981	-0.039952	-0.064983
-0.185109	-0.080710	0.104400	0.132910	-0.144754	0.011845	-0.030029	-0.039487	-0.034487	-0.045015	-0.040031	-0.064995
-0.184167	-0.079895	0.104272	0.132031	-0.144219	0.012188	-0.029971	-0.035106	-0.030104	-0.044984	-0.039950	-0.065027
-0.181070	-0.080144	0.100926	0.130607	-0.140998	0.010391	-0.030081	-0.034578	-0.029578	-0.045579	-0.040086	-0.064996
-0.178631	-0.079655	0.098976	0.129143	-0.138804	0.009661	-0.024879	-0.034993	-0.029994	-0.049673	-0.039839	-0.064987
-0.171500	-0.075605	0.095895	0.123553	-0.133698	0.010145	-0.025568	-0.035408	-0.030409	-0.050092	-0.040242	-0.064996
-0.167305	-0.074992	0.092313	0.121149	-0.129809	0.008661	-0.024817	-0.034938	-0.029936	-0.049969	-0.039258	-0.065028
-0.173986	-0.074993	0.098992	0.124489	-0.136489	0.011999	-0.020581	-0.030503	-0.025504	-0.050041	-0.040392	-0.064998
-0.236798	-0.075026	0.161772	0.155912	-0.199285	0.043373	-0.019752	-0.029801	-0.024804	-0.049955	-0.044288	-0.064989
-0.191187	-0.074548	0.116639	0.132867	-0.153913	0.021046	-0.020501	-0.030478	-0.025471	-0.050047	-0.046190	-0.064996
-0.140913	-0.070104	0.070809	0.105508	-0.105861	0.000353	-0.019913	-0.029926	-0.024932	-0.049963	-0.059378	-0.065053
-0.168358	-0.069533	0.098825	0.118946	-0.133592	0.014646	-0.015460	-0.025465	-0.020448	-0.050089	-0.055596	-0.064425
-0.170952	-0.070179	0.100772	0.120566	-0.135862	0.015296	-0.014939	-0.024922	-0.019946	-0.049842	-0.054692	-0.060283
-0.169332	-0.069509	0.099823	0.119421	-0.134578	0.015157	-0.015064	-0.025047	-0.020007	-0.050460	-0.055532	-0.059942
-0.165169	-0.065099	0.100070	0.115134	-0.132620	0.017486	-0.014351	-0.024973	-0.020028	-0.049974	-0.049867	-0.060015
-0.164596	-0.064599	0.099998	0.114598	-0.132297	0.017699	-0.010560	-0.024527	-0.019432	-0.045392	-0.049654	-0.060073
-0.164868	-0.064940	0.099928	0.114904	-0.132398	0.017494	-0.009989	-0.020111	-0.015279	-0.045086	-0.049960	-0.059663
-0.165551	-0.065480	0.100072	0.115515	-0.132812	0.017296	-0.009437	-0.020437	-0.014951	-0.044381	-0.045027	-0.055606
-0.164164	-0.064259	0.099905	0.114211	-0.132034	0.017823	-0.005647	-0.019901	-0.014987	-0.040709	-0.044978	-0.054938
-0.155813	-0.055606	0.100207	0.105709	-0.128010	0.022301	-0.004932	-0.015528	-0.015066	-0.039910	-0.045074	-0.055090
-0.149144	-0.049535	0.099608	0.099340	-0.124376	0.025036	-0.005039	-0.014791	-0.014843	-0.040064	-0.039913	-0.054818
-0.141447	-0.040702	0.100745	0.091075	-0.121096	0.030021	-0.004538	-0.015482	-0.015469	-0.039533	-0.040514	-0.055476
-0.128152	-0.034231	0.093921	0.081191	-0.111037	0.029845	-0.000072	-0.014923	-0.014929	-0.035100	-0.039900	-0.054936
-0.117797	-0.025130	0.092667	0.071463	-0.105232	0.033769	0.000467	-0.010455	-0.010450	-0.034516	-0.035444	-0.050453
-0.156821	-0.019344	0.137476	0.088083	-0.147148	0.059066	-0.000081	-0.009941	-0.009952	-0.035192	-0.034999	-0.049943
-0.168211	-0.035722	0.132489	0.101966	-0.150350	0.048384	-0.000399	-0.010064	-0.010004	-0.034474	-0.034495	-0.049997
-0.193131	-0.074193	0.118938	0.133662	-0.156035	0.022373	-0.005107	-0.009349	-0.010004	-0.030109	-0.030169	-0.050053
-0.196103	-0.085812	0.110291	0.140958	-0.153197	0.012239	-0.009842	-0.005560	-0.009992	-0.029575	-0.029406	-0.049412
-0.184700	-0.084567	0.100133	0.134633	-0.142416	0.007783	-0.015345	-0.004999	-0.010048	-0.029854	-0.030148	-0.045302
-0.174603	-0.085817	0.088786	0.130210	-0.131695	0.001484	-0.019772	-0.004441	-0.009543	-0.025503	-0.024783	-0.044910
-0.155376	-0.074198	0.081178	0.114787	-0.118277	0.003490	-0.014944	-0.000659	-0.005088	-0.024994	-0.025266	-0.045059
-0.160384	-0.066252	0.094132	0.113318	-0.127258	0.013940	-0.014677	0.000067	-0.004516	-0.025057	-0.024507	-0.044963
-0.138504	-0.052958	0.085546	0.095731	-0.112025	0.016294	-0.014967	-0.000065	-0.005170	-0.024685	-0.025793	-0.045049
-0.127290	-0.048027	0.079263	0.087659	-0.103276	0.015618	-0.015425	0.000466	-0.004906	-0.020591	-0.043961	-0.044527
-0.176419	-0.101936	0.074484	0.139178	-0.125452	-0.013726	-0.014957	0.004900	-0.005065	-0.019939	-0.041195	-0.040108
-0.166924	-0.097160	0.069764	0.132042	-0.118344	-0.013698	-0.010447	0.005510	-0.004953	-0.020084	-0.039310	-0.039511
-0.148273	-0.083806	0.064466	0.116040	-0.106369	-0.009670	-0.009962	0.004751	-0.005074	-0.019675	-0.040249	-0.040158
-0.141130	-0.080120	0.061010	0.110625	-0.101070	-0.009555	-0.010022	0.005591	-0.004533	-0.015581	-0.039875	-0.039906
-0.133183	-0.069676	0.063507	0.101429	-0.098345	-0.003084	-0.009971	0.009999	-0.000088	-0.014969	-0.040076	-0.040067
-0.132335	-0.060083	0.072252	0.096209	-0.102294	0.006085	-0.010079	0.014912	0.000479	-0.015003	-0.040023	-0.039969
-0.167880	-0.054770	0.113109	0.111325	-0.140494	0.029169	-0.009684	0.020322	-0.000195	-0.014988	-0.039734	-0.039998
-0.135812	-0.060196	0.075616	0.098004	-0.105714	0.007710	-0.005593	0.024766	0.000503	-0.014998	-0.035554	-0.040007
-0.100211	-0.059899	0.040312	0.080055	-0.070261	-0.009794	-0.004941	0.019986	0.004942	-0.015003	-0.035002	-0.039982
-0.119653	-0.060073	0.059580	0.089863	-0.089616	-0.000246	-0.005030	0.019593	0.005396	-0.014998	-0.034992	-0.040078
-0.124663	-0.064949	0.059714	0.094806	-0.092188	-0.002618	-0.004967	0.020130	0.005049	-0.014993	-0.034993	-0.039678
-0.125062	-0.064550	0.060512	0.094806	-0.092787	-0.002019	-0.004626	0.019936	0.004542	-0.014998	-0.034992	-0.035580
-0.144558	-0.065167	0.079390	0.104862	-0.111974	0.007111	0.000060	0.020052	0.005166	-0.015005	-0.035046	-0.034978
-0.160127	-0.074701	0.085426	0.117414	-0.122777	0.005363	0.000275	0.019977	0.009379	-0.014999	-0.034414	-0.035002
-0.164780	-0.080050	0.084731	0.122415	-0.124756	0.002340	0.000212	0.020019	0.010390	-0.014998	-0.030303	-0.034983
-0.154945	-0.069681	0.085264	0.112313	-0.120105	0.007791	-0.000740	0.019988	0.009182	-0.014990	-0.029909	-0.034996
-0.149769	-0.065417	0.084352	0.107593	-0.117060	0.009467	0.001182	0.020017	0.011213	-0.015008	-0.030053	-0.035010
-0.144632	-0.059421	0.085211	0.102026	-0.114921	0.012895	-0.001270	0.019991	0.008726	-0.014990	-0.029970	-0.034996
-0.140939	-0.051124	0.089815	0.096032	-0.115377	0.019346	-0.028481	0.019997	-0.018512	-0.014996	-0.030007	-0.034983
-0.132996	-0.042947	0.090049	0.087972	-0.111523	0.023551	-0.026225	0.019998	-0.016205	-0.014984	-0.029985	-0.035002
-0.133191	-0.043191	0.090000	0.088191	-0.111595	0.023405	-0.024149	0.020009	-0.013656	-0.015018	-0.030018	-0.034978
-0.182220	-0.092141	0.090079	0.137180	-0.136149	-0.001031	-0.025299	0.019999	-0.010015	-0.014970	-0.029993	-0.035580
-0.181372	-0.091642	0.089730	0.136507	-0.135551	-0.000956	-0.024840	0.019997	-0.009855	-0.015059	-0.029960	-0.039678
-0.169528	-0.084419	0.085109	0.126973	-0.127319	0.000345	-0.025118	0.020006	-0.010320	-0.014673	-0.030019	-0.040078
-0.165419	-0.085515	0.079904	0.125467	-0.122662	-0.002805	-0.024940	0.020001	-0.005513	-0.014991	-0.029954	-0.039982
-0.155291	-0.080114	0.075177	0.117703	-0.115234	-0.002469	-0.025059	0.020016	-0.004393	-0.025454	-0.030074	-0.040007
-0.149681	-0.080007	0.069674	0.114844	-0.109677	-0.005166	-0.024977	0.019976	-0.000421	-0.034696	-0.029856	-0.039998
-0.140458	-0.074592	0.065866	0.107525	-0.103162	-0.004363	-0.025021	0.020040	0.000593	-0.030166	-0.030174	-0.039969
-0.134340	-0.069860	0.064480	0.102100	-0.099410	-0.002690	-0.025037	0.019976	-0.000753	-0.029376	-0.029718	-0.040067
-0.145995	-0.070616	0.075379	0.108306	-0.110687	0.002381	-0.024418	0.019528	-0.009446	-0.030244	-0.030503	-0.039909
-0.163396	-0.064370	0.099027	0.113883	-0.131211	0.017328	-0.020310	0.015120	-0.015221	-0.029608	-0.028742	-0.040157
-0.156658	-0.065775	0.090883	0.111216	-0.123770	0.012554	-0.019903	0.015437	-0.024865	-0.025654	-0.031416	-0.039517
-0.178730	-0.093813	0.084917	0.136272	-0.131823	-0.004448	-0.020059	0.014902	-0.029998	-0.024911	-0.058093	-0.040102
-0.180861	-0.100838	0.080023	0.140850	-0.130442	-0.010408	-0.019954	0.010529	-0.029901	-0.025116	-0.056216	-0.044539
-0.169711	-0.099659	0.070052	0.134685	-0.119882	-0.014804	-0.020033	0.009796	-0.030074	-0.024678	-0.054292	-0.045043
-0.165191	-0.100167	0.065024	0.132679	-0.115108	-0.017571	-0.019939	0.010482	-0.029958	-0.020594	-0.055337	-0.044990
-0.159949	-0.099933	0.060015	0.129941	-0.109982	-0.019959	-0.020081	0.009921	-0.030047	-0.019972	-0.054827	-0.045023
-0.155033	-0.100084	0.054949	0.127559	-0.104991	-0.022568	-0.019880	0.005456	-0.029990	-0.019998	-0.055138	-0.044997
-0.149953	-0.099888	0.050065	0.124920	-0.100009	-0.024912	-0.020185	0.004943	-0.030019	-0.020041	-0.054911	-0.044997
-0.145303	-0.100501	0.044802	0.122902	-0.095053	-0.027849	-0.019473	0.005065	-0.029999	-0.019540	-0.055066	-0.044997
-0.145307	-0.104929	0.040377	0.125118	-0.092842	-0.032276	-0.020150	0.004347	-0.030017	-0.015087	-0.054987	-0.045023
-0.138619	-0.105520	0.033099	0.122070	-0.085859	-0.036210	-0.024445	0.000560	-0.030000	-0.014512	-0.055025	-0.044993
-0.136325	-0.104792	0.031532	0.120559	-0.083929	-0.036630	-0.025208	-0.000001	-0.029993	-0.015191	-0.055026	-0.045043
-0.168869	-0.105121	0.063748	0.136995	-0.116309	-0.020686	-0.024508	-0.000553	-0.029998	-0.014461	-0.054539	-0.044546
-0.175528	-0.104936	0.070592	0.140232	-0.123060	-0.017172	-0.025096	-0.004357	-0.030012	-0.010110	-0.050106	-0.040096
-0.174352	-0.105133	0.069220	0.139743	-0.121786	-0.017957	-0.029544	-0.005051	-0.030001	-0.009518	-0.049516	-0.039527
-0.174969	-0.104628	0.070341	0.139799	-0.122655	-0.017144	-0.030042	-0.004968	-0.029992	-0.010105	-0.050155	-0.040143
-0.170380	-0.100620	0.069761	0.135500	-0.120070	-0.015429	-0.030002	-0.005423	-0.030004	-0.009974	-0.049908	-0.039930
-0.170175	-0.099958	0.070217	0.135066	-0.120196	-0.014871	-0.029977	-0.009975	-0.030006	-0.010112	-0.050071	-0.040033
-0.169916	-0.100093	0.069824	0.135005	-0.119870	-0.015134	-0.030593	-0.010400	-0.030010	-0.014525	-0.049969	-0.040046
-0.169878	-0.099658	0.070220	0.134768	-0.120049	-0.014719	-0.034672	-0.009953	-0.029983	-0.019909	-0.049996	-0.039702
-0.165070	-0.095583	0.069487	0.130327	-0.117278	-0.013048	-0.035113	-0.010075	-0.030025	-0.020448	-0.050007	-0.035564
-0.165135	-0.094995	0.070140	0.130065	-0.117637	-0.012428	-0.034934	-0.014972	-0.029973	-0.024533	-0.049986	-0.034990
-0.169540	-0.095008	0.074532	0.132274	-0.122036	-0.010238	-0.035114	-0.019502	-0.030085	-0.024737	-0.050078	-0.034996
-0.170034	-0.095001	0.075033	0.132517	-0.122533	-0.009984	-0.034671	-0.015148	-0.029683	-0.029967	-0.049676	-0.034993
-0.169563	-0.094575	0.074988	0.132069	-0.122275	-0.009793	-0.030593	-0.015056	-0.025582	-0.035342	-0.045579	-0.034992
-0.165096	-0.090064	0.075032	0.127580	-0.120064	-0.007516	-0.029973	-0.014926	-0.024979	-0.035367	-0.044985	-0.035045
-0.164601	-0.089607	0.074995	0.127104	-0.119798	-0.007306	-0.030009	-0.015114	-0.024998	-0.040331	-0.045002	-0.034410
-0.164974	-0.089980	0.074995	0.127477	-0.119984	-0.007493	-0.029991	-0.014828	-0.025043	-0.039939	-0.044988	-0.030306
-0.165378	-0.090383	0.074995	0.127880	-0.120186	-0.007694	-0.030002	-0.015486	-0.024542	-0.035496	-0.044997	-0.029898
-0.165056	-0.090014	0.075042	0.127535	-0.120049	-0.007486	-0.030035	-0.014923	-0.020094	-0.035034	-0.045018	-0.030067
-0.160391	-0.085397	0.074994	0.122894	-0.117693	-0.005202	-0.029432	-0.010457	-0.019518	-0.034977	-0.044996	-0.029946
-0.160035	-0.085023	0.075012	0.122529	-0.117524	-0.005006	-0.025282	-0.009955	-0.020164	-0.035018	-0.044990	-0.030037
-0.159496	-0.084507	0.074990	0.122001	-0.117243	-0.004758	-0.024949	-0.010004	-0.019904	-0.034984	-0.044991	-0.029943
-0.155234	-0.080161	0.075073	0.117697	-0.115154	-0.002544	-0.024993	-0.010004	-0.020092	-0.035026	-0.045051	-0.030064
-0.154381	-0.079474	0.074907	0.116928	-0.114644	-0.002284	-0.025065	-0.009992	-0.019388	-0.034991	-0.044414	-0.030419
-0.155301	-0.080050	0.075251	0.117676	-0.115276	-0.002399	-0.024841	-0.010044	-0.015320	-0.034994	-0.040302	-0.035204
-0.149991	-0.074951	0.075040	0.112471	-0.112516	0.000045	-0.025468	-0.009543	-0.014912	-0.034996	-0.039916	-0.039831
-0.140805	-0.075030	0.065775	0.107917	-0.103290	-0.004627	-0.024930	-0.005085	-0.015018	-0.035013	-0.040049	-0.034914
-0.134196	-0.075038	0.059158	0.104617	-0.096677	-0.007940	-0.020449	-0.004518	-0.015038	-0.034997	-0.039987	-0.034696
-0.125510	-0.069915	0.055596	0.097712	-0.090553	-0.007160	-0.019945	-0.005139	-0.014695	-0.034990	-0.039982	-0.034945
-0.119543	-0.070507	0.049036	0.095025	-0.084289	-0.010736	-0.020002	-0.004923	-0.010553	-0.035004	-0.040025	-0.035428
-0.115505	-0.069907	0.045598	0.092706	-0.080551	-0.012155	-0.020006	-0.005018	-0.009986	-0.035005	-0.039965	-0.034959
-0.103349	-0.065465	0.037884	0.084407	-0.070617	-0.013790	-0.019997	-0.005015	-0.009969	-0.035014	-0.040085	-0.030444
-0.097021	-0.064964	0.032058	0.080992	-0.064539	-0.016453	-0.019991	-0.004925	-0.010054	-0.034969	-0.039823	-0.029953
-0.127941	-0.064541	0.063401	0.096241	-0.095671	-0.000570	-0.019999	-0.005110	-0.009660	-0.035037	-0.040477	-0.030021
-0.121734	-0.060111	0.061623	0.090922	-0.091679	0.000756	-0.020005	-0.004802	-0.010031	-0.034956	-0.039930	-0.029979
-0.118944	-0.059473	0.059470	0.089208	-0.089207	-0.000002	-0.019998	-0.005354	-0.019816	-0.035092	-0.035455	-0.030077
-0.115727	-0.060173	0.055554	0.087950	-0.085641	-0.002310	-0.019991	-0.004127	-0.025367	-0.034824	-0.034941	-0.029679
-0.115071	-0.059821	0.055250	0.087446	-0.085161	-0.002285	-0.019998	-0.006087	-0.030108	-0.035480	-0.035004	-0.025589
-0.115122	-0.060171	0.054951	0.087646	-0.085037	-0.002610	-0.020008	-0.023736	-0.035172	-0.034928	-0.035012	-0.024954
-0.110429	-0.059797	0.050632	0.085113	-0.080531	-0.004583	-0.019998	-0.020715	-0.029992	-0.030455	-0.034996	-0.025025
-0.109577	-0.060250	0.049326	0.084914	-0.079452	-0.005462	-0.019995	-0.019460	-0.029973	-0.029947	-0.034987	-0.024977
-0.105768	-0.059317	0.046451	0.082543	-0.076110	-0.006433	-0.019998	-0.020249	-0.030282	-0.030004	-0.034998	-0.024611
-0.104180	-0.060942	0.043238	0.082561	-0.073709	-0.008852	-0.020008	-0.019898	-0.025499	-0.030013	-0.035011	-0.019978
-0.116544	-0.069115	0.047428	0.092830	-0.081986	-0.010844	-0.019998	-0.019520	-0.025038	-0.029996	-0.034997	-0.019685
-0.164139	-0.076405	0.087734	0.120272	-0.125937	0.005665	-0.019995	-0.015252	-0.025005	-0.029993	-0.034987	-0.019860
-0.170229	-0.098170	0.072060	0.134200	-0.121145	-0.013055	-0.019998	-0.014968	-0.024589	-0.029999	-0.034997	-0.020609
-0.150914	-0.096447	0.054467	0.123681	-0.102691	-0.020990	-0.020008	-0.015014	-0.020065	-0.030011	-0.035014	-0.019405
-0.149919	-0.093589	0.056329	0.121754	-0.103124	-0.018630	-0.020001	-0.015007	-0.019537	-0.029991	-0.035000	-0.021215
-0.145555	-0.090763	0.054793	0.118159	-0.100174	-0.017985	-0.019995	-0.015029	-0.020187	-0.030038	-0.034991	-0.039222
-0.144309	-0.089130	0.055179	0.116720	-0.099744	-0.016975	-0.020008	-0.014570	-0.019479	-0.029540	-0.035007	-0.035919
-0.140765	-0.085895	0.054869	0.113330	-0.097817	-0.015513	-0.020001	-0.010039	-0.015102	-0.025096	-0.035006	-0.034814
-0.139427	-0.084288	0.055140	0.111857	-0.097284	-0.014574	-0.020012	-0.009608	-0.014576	-0.024518	-0.035017	-0.035161
-0.135050	-0.080393	0.054656	0.107722	-0.094853	-0.012869	-0.019991	-0.009998	-0.014860	-0.025165	-0.034976	-0.029870
-0.130043	-0.079528	0.050515	0.104785	-0.090279	-0.014506	-0.020019	-0.010394	-0.010498	-0.024912	-0.035034	-0.030569
-0.125084	-0.074600	0.050484	0.099842	-0.087784	-0.012058	-0.019989	-0.009967	-0.010000	-0.025067	-0.034970	-0.029867
-0.125145	-0.075150	0.049995	0.100147	-0.087570	-0.012577	-0.020059	-0.005437	-0.010038	-0.024969	-0.035093	-0.025494
-0.129373	-0.084523	0.044850	0.106948	-0.087111	-0.019836	-0.019732	-0.004955	-0.009726	-0.025023	-0.034681	-0.024989
-0.120371	-0.074868	0.045502	0.097619	-0.082937	-0.014683	-0.015561	-0.005034	-0.005539	-0.024996	-0.030634	-0.024550
-0.114076	-0.070318	0.043758	0.092197	-0.078917	-0.013280	-0.014478	-0.004951	-0.005021	-0.025015	-0.029341	-0.020121
-0.121347	-0.064575	0.056773	0.092961	-0.089060	-0.003901	-0.009761	-0.005115	-0.004951	-0.025029	-0.025572	-0.019488
-0.148952	-0.055925	0.093027	0.102438	-0.120990	0.018551	-0.009976	-0.004642	-0.004917	-0.024821	-0.024793	-0.020057
-0.129743	-0.048849	0.080894	0.089296	-0.105319	0.016023	-0.010299	-0.000711	-0.000018	-0.020029	-0.020057	-0.014963
-0.115596	-0.046900	0.068696	0.081248	-0.092146	0.010898	-0.005470	0.000785	0.000010	-0.015004	-0.019999	-0.014995
-0.138515	-0.073137	0.065377	0.105826	-0.101946	-0.003880	-0.004532	0.004248	-0.000005	-0.010522	-0.019964	-0.015063
-0.131165	-0.066155	0.065011	0.098660	-0.098088	-0.000572	-0.000119	0.005501	0.004944	-0.009817	-0.015178	-0.009909
-0.119152	-0.054544	0.064608	0.086848	-0.091880	0.005032	-0.000388	0.009232	0.004912	-0.004663	-0.014465	-0.010556
-0.110507	-0.046018	0.064488	0.078263	-0.087498	0.009235	0.000019	0.010823	0.005080	0.000040	-0.010620	-0.009824
-0.099462	-0.034472	0.064990	0.066967	-0.082226	0.015259	0.004630	0.014235	0.005444	0.000300	-0.009459	-0.005599
-0.055328	0.009977	0.065305	0.022676	-0.060317	0.037641	0.005125	0.015513	0.009896	0.005296	-0.005145	-0.004572
-0.014527	0.049140	0.063667	-0.017306	-0.039097	0.056404	0.010039	0.019238	0.009565	0.010128	-0.005394	-0.000724
-0.030718	0.035544	0.066262	-0.002413	-0.048490	0.050903	0.009974	0.020821	0.010105	0.010602	-0.004954	0.000790
-0.064142	0.024963	0.089105	0.019590	-0.076624	0.057034	0.010088	0.024259	0.014484	0.014434	-0.000440	0.004241
-0.071028	0.015138	0.086166	0.027945	-0.078597	0.050652	0.014841	0.025476	0.015176	0.015091	-0.000013	0.005506
-0.084437	0.000480	0.084917	0.041979	-0.084677	0.042698	0.015357	0.029346	0.014541	0.014961	0.000432	0.009222
-0.095832	-0.010430	0.085403	0.053131	-0.090617	0.037486	0.014948	0.030093	0.015039	0.015019	0.004951	0.010841
-0.098986	-0.019564	0.079422	0.059275	-0.089204	0.029929	0.005339	0.029976	0.019620	0.015003	0.005400	0.014216
-0.095702	-0.015507	0.080194	0.055605	-0.087948	0.032343	-0.005018	0.030032	0.019901	0.014991	0.005146	0.015545
-0.094562	-0.014433	0.080129	0.054497	-0.087346	0.032848	-0.015047	0.029999	0.020431	0.015016	0.009502	0.019208
-0.085742	-0.010084	0.075659	0.047913	-0.080701	0.032788	-0.024881	0.030032	0.020033	0.015023	0.010039	0.020883
-0.084524	-0.009609	0.074915	0.047067	-0.079720	0.032653	-0.035326	0.030003	0.014708	0.014385	0.009344	0.024104
-0.084972	-0.009836	0.075137	0.047404	-0.080054	0.032650	-0.039802	0.030036	0.015095	0.015064	0.010207	0.026333
-0.080175	-0.005564	0.074611	0.042869	-0.077393	0.034524	-0.035499	0.030003	0.025207	0.035527	0.029884	0.043809
-0.075324	-0.004290	0.071034	0.039807	-0.073179	0.033372	-0.035051	0.030042	0.034322	0.054200	0.044938	0.040670
-0.064861	-0.000666	0.064194	0.032763	-0.064527	0.031764	-0.034985	0.030008	0.045393	0.045668	0.035483	0.034326
-0.064986	0.000469	0.065456	0.032259	-0.065221	0.032962	-0.035041	0.029763	0.054644	0.039223	0.029615	0.030427
-0.059621	-0.000420	0.059201	0.030020	-0.059411	0.029390	-0.034999	0.019628	0.040752	0.030907	0.025208	0.029796
-0.072244	-0.014339	0.057905	0.043292	-0.065074	0.021783	-0.035052	0.010043	0.029979	0.024142	0.019914	0.025176
-0.077042	-0.025599	0.051443	0.051320	-0.064242	0.012922	-0.034437	0.004591	0.019943	0.015803	0.015107	0.019872
-0.023083	-0.034700	-0.011617	0.028892	-0.005733	-0.023159	-0.030291	-0.005032	0.005264	0.009498	0.009783	0.020109
-0.047234	-0.045201	0.002033	0.046218	-0.024633	-0.021584	-0.029951	-0.014506	-0.005728	0.000741	0.000054	0.014505
-0.080786	-0.054397	0.026389	0.067591	-0.053587	-0.014004	-0.029995	-0.019974	-0.014256	-0.005759	-0.010004	0.010069
-0.109689	-0.065635	0.044054	0.087662	-0.076871	-0.010791	-0.030065	-0.024593	-0.000523	-0.014349	-0.020039	0.009640
-0.144603	-0.084725	0.059878	0.114664	-0.102241	-0.012423	-0.029839	-0.024888	0.009913	-0.020312	-0.029909	0.004742
-0.130029	-0.090095	0.039935	0.110062	-0.084982	-0.025080	-0.030468	-0.025725	0.004877	-0.029891	-0.040439	-0.000139
-0.110355	-0.090697	0.019658	0.100526	-0.065007	-0.035520	-0.029920	-0.029141	0.000126	-0.034365	-0.049295	-0.000589
-0.083912	-0.089499	-0.005587	0.086706	-0.039163	-0.047543	-0.025460	-0.030450	-0.005142	-0.030504	-0.045363	-0.004412
-0.066963	-0.091174	-0.024211	0.079069	-0.021376	-0.057693	-0.024913	-0.029115	-0.009658	-0.029777	-0.040256	-0.005339
-0.117749	-0.118462	-0.000713	0.118106	-0.058518	-0.059587	-0.025032	-0.031110	-0.010572	-0.025365	-0.039378	-0.009493
-0.136189	-0.116153	0.020035	0.126171	-0.078112	-0.048059	-0.024954	-0.048738	-0.015012	-0.025176	-0.035203	-0.010088
-0.160498	-0.114566	0.045932	0.137532	-0.103215	-0.034317	-0.025072	-0.045738	-0.019904	-0.019330	-0.029607	-0.014591
-0.193863	-0.115402	0.078461	0.154633	-0.136162	-0.018470	-0.024866	-0.044426	-0.025288	-0.020725	-0.030644	-0.019883
-0.161101	-0.110191	0.050909	0.135646	-0.106005	-0.029641	-0.025223	-0.045340	-0.029964	-0.049242	-0.049209	-0.020522
-0.134526	-0.110307	0.024219	0.122416	-0.079373	-0.043044	-0.024439	-0.044180	-0.029956	-0.049841	-0.060625	-0.024432
-0.114899	-0.109754	0.005145	0.112327	-0.060022	-0.052304	-0.030792	-0.040739	-0.045608	-0.050701	-0.064230	-0.025489
-0.095415	-0.110060	-0.014645	0.102738	-0.040385	-0.062353	-0.049291	-0.039805	-0.064512	-0.069351	-0.060292	-0.030040
-0.109221	-0.104832	0.004389	0.107027	-0.056805	-0.050221	-0.045491	-0.040133	-0.060797	-0.065943	-0.059954	-0.030194
-0.130139	-0.105238	0.024901	0.117689	-0.077520	-0.040168	-0.039885	-0.039978	-0.054938	-0.064323	-0.060010	-0.025606
-0.144737	-0.104735	0.040002	0.124736	-0.092369	-0.032367	-0.039715	-0.039505	-0.050575	-0.065203	-0.060076	-0.024360
-0.166033	-0.100314	0.065719	0.133174	-0.115876	-0.017298	-0.035082	-0.035299	-0.049806	-0.064901	-0.059803	-0.020400
-0.142924	-0.099524	0.043400	0.121224	-0.093162	-0.028062	-0.035058	-0.035020	-0.044731	-0.065106	-0.060528	-0.019268
-0.135108	-0.101567	0.033542	0.118337	-0.084325	-0.034012	-0.029985	-0.034982	-0.039941	-0.064986	-0.059863	-0.015782
-0.142441	-0.098425	0.044017	0.120433	-0.093229	-0.027204	-0.025122	-0.035855	-0.039889	-0.064610	-0.055647	-0.014283
-0.057662	-0.097264	-0.039602	0.077463	-0.009030	-0.068433	-0.024800	-0.034948	-0.034716	-0.060269	-0.054815	-0.010489
-0.144005	-0.143321	0.000684	0.143663	-0.072345	-0.071319	-0.020891	-0.020929	-0.030253	-0.060284	-0.055423	-0.009425
-0.187954	-0.130593	0.057360	0.159274	-0.122657	-0.036616	-0.019408	-0.004950	-0.029171	-0.059804	-0.054572	-0.004840
-0.185083	-0.121472	0.063612	0.153278	-0.124348	-0.028930	-0.005089	0.009947	-0.026199	-0.060631	-0.055965	-0.005217
-0.142564	-0.107143	0.035421	0.124853	-0.088993	-0.035861	0.005347	0.024523	-0.024158	-0.059307	-0.053261	-0.025538
-0.110661	-0.104923	0.005738	0.107792	-0.058199	-0.049592	0.019829	0.035722	-0.026669	-0.061606	-0.057756	-0.044702
-0.152680	-0.173991	-0.021311	0.163336	-0.065684	-0.097651	0.029162	0.064836	-0.022299	-0.058217	-0.087262	-0.066361
-0.097629	-0.139767	-0.042138	0.118698	-0.027746	-0.090952	0.020882	0.099706	0.016519	-0.027751	-0.062840	-0.083803
-0.093378	-0.085877	0.007501	0.089628	-0.050440	-0.039188	0.071055	0.181770	0.063522	0.007399	-0.033096	-0.036487
-0.066637	0.006885	0.073522	0.029876	-0.070079	0.040203	0.123625	0.298266	0.187359	0.112664	0.048607	0.015904
-0.053539	0.072455	0.125994	-0.009458	-0.089766	0.099224	0.107574	0.362745	0.287206	0.206126	0.134872	0.059729
0.023656	0.123568	0.099912	-0.073612	-0.038128	0.111740	0.082775	0.393025	0.359265	0.279995	0.185543	0.100808
0.115207	0.176610	0.061403	-0.145909	0.026902	0.119007	0.032487	0.368566	0.441898	0.360892	0.249782	0.154749
0.276885	0.233861	-0.043024	-0.255373	0.159955	0.095418	-0.026893	0.332835	0.482896	0.434603	0.325658	0.214939
0.397298	0.260885	-0.136413	-0.329092	0.266855	0.062236	-0.128142	0.243017	0.478476	0.491499	0.394390	0.275474
0.465119	0.295997	-0.169122	-0.380558	0.317121	0.063438	-0.242342	0.113051	0.461839	0.513229	0.446130	0.334371
0.531116	0.318709	-0.212408	-0.424913	0.371762	0.053151	-0.332606	-0.036592	0.399686	0.503004	0.504637	0.401582
0.498105	0.307832	-0.190273	-0.402969	0.344189	0.058780	-0.393168	-0.224109	0.326339	0.488299	0.540742	0.458522
0.475717	0.286610	-0.189107	-0.381164	0.332412	0.048752	-0.476857	-0.479219	0.118147	0.341151	0.483527	0.441605
0.462545	0.189054	-0.273491	-0.325799	0.368018	-0.042219	-0.543296	-0.766471	-0.146905	0.130824	0.357504	0.418963
0.266695	0.122585	-0.144110	-0.194640	0.205402	-0.010762	-0.653779	-1.191965	-0.378177	-0.025553	0.278102	0.400768
0.150344	0.066340	-0.084004	-0.108342	0.117174	-0.008832	-0.705126	-1.396102	-0.491581	-0.129628	0.211902	0.379844
0.088834	0.038958	-0.049876	-0.063896	0.069355	-0.005459	-0.675958	-1.347938	-0.545398	-0.179929	0.163997	0.366269
0.052469	0.020293	-0.032176	-0.036381	0.042323	-0.005941	-0.644263	-1.299129	-0.565094	-0.231297	0.120662	0.349410
0.006155	-0.025015	-0.031170	0.009430	0.018663	-0.028093	-0.595904	-1.201990	-0.556712	-0.274139	0.064519	0.295728
-0.046143	-0.070297	-0.024154	0.058220	-0.010994	-0.047225	-0.549499	-1.100234	-0.548594	-0.256455	0.015817	0.244835
-0.074083	-0.094796	-0.020714	0.084439	-0.026685	-0.057755	-0.495970	-0.990511	-0.492355	-0.234382	-0.000487	0.220347
-0.111507	-0.090613	0.020893	0.101060	-0.066200	-0.034860	-0.439364	-0.825020	-0.429271	-0.216174	-0.010094	0.194992
-0.143954	-0.089709	0.054245	0.116831	-0.099099	-0.017732	-0.380391	-0.651413	-0.355766	-0.199739	-0.025037	0.155040
-0.136629	-0.090363	0.046266	0.113496	-0.091447	-0.022049	-0.320217	-0.539209	-0.285379	-0.180933	-0.035162	0.119648
-0.128881	-0.089270	0.039612	0.109075	-0.084246	-0.024829	-0.249581	-0.424941	-0.229807	-0.164311	-0.060711	0.089767
-0.115344	-0.085723	0.029621	0.100533	-0.072483	-0.028051	-0.180176	-0.315493	-0.180475	-0.145709	-0.079462	0.059975
-0.109978	-0.084885	0.025093	0.097432	-0.067535	-0.029896	-0.134094	-0.243717	-0.144108	-0.129822	-0.075538	0.049601
-0.100053	-0.085039	0.015013	0.092546	-0.057533	-0.035013	-0.095479	-0.175934	-0.110445	-0.115033	-0.074999	0.044490
-0.096113	-0.085129	0.010984	0.090621	-0.053548	-0.037073	-0.069558	-0.129281	-0.084447	-0.100601	-0.075042	0.035571
-0.124796	-0.084289	0.040508	0.104543	-0.082652	-0.021890	-0.049713	-0.090545	-0.060304	-0.089941	-0.075109	0.029352
-0.150976	-0.080511	0.070465	0.115744	-0.110721	-0.005023	-0.039850	-0.053795	-0.049498	-0.080011	-0.074716	0.020166
-0.112623	-0.079499	0.033123	0.096061	-0.072873	-0.023188	-0.034338	-0.020201	-0.045449	-0.074963	-0.070595	0.014938
-0.084954	-0.081131	0.003823	0.083043	-0.044388	-0.038654	-0.025644	-0.009464	-0.039841	-0.064995	-0.070011	0.010118
-0.140331	-0.078345	0.061987	0.109338	-0.101159	-0.008179	-0.019241	-0.004959	-0.030374	-0.054973	-0.070006	0.009423
-0.144398	-0.081854	0.062544	0.113126	-0.103471	-0.009655	-0.010243	0.000284	-0.024859	-0.049949	-0.070046	0.010049
-0.176504	-0.117842	0.058662	0.147173	-0.117583	-0.029590	-0.004828	0.005038	-0.019898	-0.045444	-0.069542	0.004925
-0.172466	-0.111838	0.060628	0.142152	-0.116547	-0.025605	-0.000093	0.010071	-0.015641	-0.045010	-0.065103	0.005011
-0.158738	-0.103641	0.055098	0.131189	-0.106918	-0.024271	0.005164	0.015054	-0.014895	-0.045013	-0.064522	0.005027
-0.155618	-0.100487	0.055131	0.128053	-0.105375	-0.022678	0.009817	0.020067	-0.015012	-0.044685	-0.065174	-0.000070
-0.150035	-0.094790	0.055245	0.122413	-0.102640	-0.019773	0.015531	0.025032	-0.014560	-0.040549	-0.064489	0.000508
-0.144858	-0.089701	0.055157	0.117279	-0.100007	-0.017272	0.019872	0.030014	-0.010026	-0.039990	-0.060100	-0.000116
-0.135067	-0.084843	0.050224	0.109955	-0.092646	-0.017309	0.020571	0.035057	-0.009611	-0.039979	-0.059585	-0.004537
-0.139946	-0.089585	0.050361	0.114766	-0.095154	-0.019612	0.024639	0.039805	-0.009966	-0.040029	-0.059985	-0.004997
-0.140192	-0.090088	0.050104	0.115140	-0.095148	-0.019992	0.025608	0.040051	-0.010419	-0.039537	-0.060406	-0.005469
-0.135595	-0.089968	0.045627	0.112781	-0.090611	-0.022170	0.029966	0.040006	-0.009919	-0.035099	-0.059947	-0.009881
-0.134993	-0.090066	0.044927	0.112529	-0.089960	-0.022569	0.035061	0.040022	-0.005509	-0.034508	-0.055502	-0.010530
-0.134898	-0.089800	0.045098	0.112349	-0.089998	-0.022351	0.039796	0.039974	-0.004807	-0.035206	-0.054796	-0.009912
-0.135025	-0.090640	0.044385	0.112833	-0.089705	-0.023128	0.040052	0.040020	-0.005472	-0.034445	-0.055469	-0.015085
-0.134973	-0.094292	0.040681	0.114632	-0.087827	-0.026806	0.040001	0.039981	-0.004924	-0.030154	-0.054944	-0.014951
-0.135617	-0.095688	0.039930	0.115653	-0.087773	-0.027879	0.040019	0.040045	-0.000449	-0.029475	-0.050446	-0.015050
-0.139572	-0.099532	0.040040	0.119552	-0.089806	-0.029746	0.039987	0.039916	0.000048	-0.030182	-0.049938	-0.019900
-0.140001	-0.100617	0.039384	0.120309	-0.089693	-0.030616	0.040008	0.040086	-0.000002	-0.029886	-0.050005	-0.019969
-0.135321	-0.104829	0.030491	0.120075	-0.082906	-0.037169	0.040012	0.039861	-0.000029	-0.030078	-0.050040	-0.020044
-0.125218	-0.105103	0.020115	0.115160	-0.072666	-0.042494	0.040006	0.040269	0.000583	-0.029951	-0.049430	-0.019980
-0.109006	-0.099828	0.009178	0.104417	-0.059092	-0.045325	0.039990	0.039230	0.004695	-0.030016	-0.045272	-0.020017
-0.101024	-0.100677	0.000347	0.100850	-0.050685	-0.050165	0.039999	0.041058	0.005080	-0.029981	-0.044949	-0.019991
-0.128753	-0.099673	0.029080	0.114213	-0.078916	-0.035297	0.040014	0.063750	0.004972	-0.030020	-0.044999	-0.020014
-0.156043	-0.095937	0.060106	0.125990	-0.108074	-0.017916	0.040003	0.065737	0.005010	-0.029991	-0.045064	-0.020000
-0.143522	-0.093764	0.049759	0.118643	-0.096641	-0.022003	0.039940	0.064323	0.005011	-0.029994	-0.044836	-0.019996
-0.137349	-0.096319	0.041030	0.116834	-0.089190	-0.027645	0.040454	0.065339	0.004972	-0.029998	-0.045467	-0.020001
-0.151545	-0.123123	0.028422	0.137334	-0.089983	-0.047350	0.044932	0.064823	0.005053	-0.030012	-0.044941	-0.020008
-0.139886	-0.116072	0.023814	0.127979	-0.081850	-0.046129	0.045476	0.065141	0.004911	-0.029998	-0.040447	-0.019998
-0.186284	-0.104338	0.081946	0.145311	-0.134115	-0.011196	0.044822	0.064905	0.005166	-0.029993	-0.039944	-0.019995
-0.172737	-0.095137	0.077600	0.133937	-0.125169	-0.008769	0.045085	0.065061	0.004520	-0.029998	-0.040002	-0.019998
-0.154364	-0.085563	0.068801	0.119963	-0.111582	-0.008381	0.044967	0.064993	0.005088	-0.030012	-0.040016	-0.020008
-0.140135	-0.074621	0.065514	0.107378	-0.102825	-0.004553	0.045024	0.065024	0.009542	-0.030001	-0.039990	-0.019998
-0.120328	-0.065530	0.054797	0.092929	-0.087562	-0.005367	0.044981	0.064974	0.010043	-0.029992	-0.040041	-0.019999
-0.129943	-0.079695	0.050248	0.104819	-0.090095	-0.014724	0.044986	0.064988	0.009993	-0.030008	-0.039540	-0.019997
-0.130515	-0.085702	0.044814	0.108108	-0.087664	-0.020444	0.045051	0.065027	0.010003	-0.030005	-0.035100	-0.020016
-0.125217	-0.084540	0.040677	0.104879	-0.082947	-0.021932	0.044915	0.064984	0.009998	-0.030012	-0.034517	-0.019990
-0.125292	-0.085473	0.039818	0.105383	-0.082555	-0.022827	0.045301	0.064983	0.009996	-0.029986	-0.035160	-0.020015
-0.124110	-0.084043	0.040066	0.104076	-0.082088	-0.021988	0.049414	0.064971	0.009996	-0.030024	-0.034905	-0.019985
-0.125981	-0.085975	0.040005	0.105978	-0.082993	-0.022985	0.050055	0.065045	0.009999	-0.029980	-0.035080	-0.020038
-0.123641	-0.083701	0.039940	0.103671	-0.081791	-0.021880	0.049992	0.064940	0.010013	-0.030079	-0.034944	-0.019957
-0.116875	-0.076823	0.040053	0.096849	-0.078464	-0.018385	0.049996	0.065173	0.009930	-0.029697	-0.035086	-0.020117
-0.148042	-0.108169	0.039872	0.128105	-0.093957	-0.034149	0.049997	0.069938	0.010476	-0.025604	-0.034504	-0.019411
-0.146434	-0.106277	0.040157	0.126356	-0.093295	-0.033060	0.050024	0.075066	0.014883	-0.024415	-0.030143	-0.015678
-0.139552	-0.099197	0.040355	0.119375	-0.089953	-0.029421	0.050000	0.079407	0.015511	-0.019865	-0.029479	-0.014422
-0.140781	-0.100234	0.040546	0.120507	-0.090663	-0.029844	0.049996	0.080329	0.014924	-0.019739	-0.030066	-0.010196
-0.118630	-0.095182	0.023448	0.106906	-0.071039	-0.035867	0.049998	0.084412	0.020042	-0.019661	-0.024954	-0.010353
-0.112922	-0.095189	0.017732	0.104055	-0.065327	-0.038728	0.050049	0.085529	0.020005	-0.015046	-0.025013	-0.010015
-0.147583	-0.090261	0.057321	0.118922	-0.102452	-0.016470	0.049427	0.090330	0.019952	-0.014539	-0.025044	-0.005378
-0.141964	-0.085250	0.056714	0.113607	-0.099339	-0.014268	0.045275	0.089636	0.025057	-0.015032	-0.019932	-0.004893
-0.133720	-0.084383	0.049337	0.109051	-0.091528	-0.017523	0.044932	0.090389	0.024484	-0.009984	-0.020512	-0.000002
-0.126123	-0.080736	0.045387	0.103429	-0.085755	-0.017675	0.045003	0.109014	0.025124	-0.009990	-0.019894	-0.000014
-0.119136	-0.079375	0.039761	0.099255	-0.079448	-0.019807	0.045062	0.110072	0.029536	-0.010060	-0.015461	0.000036
-0.110470	-0.075132	0.035338	0.092801	-0.072904	-0.019897	0.044654	0.109729	0.029972	-0.004935	-0.014998	0.004852
-0.104372	-0.069866	0.034506	0.087119	-0.069439	-0.017680	0.040578	0.109353	0.030471	-0.005529	-0.014527	0.005439
-0.095744	-0.065760	0.029984	0.080752	-0.062864	-0.017888	0.039938	0.110635	0.034865	-0.004900	-0.010132	0.009921
-0.094705	-0.064335	0.030369	0.079520	-0.062537	-0.016983	0.040072	0.128928	0.035554	0.000053	-0.009470	0.010503
-0.090144	-0.060128	0.030016	0.075136	-0.060080	-0.015056	0.039676	0.135275	0.034843	0.004955	-0.010106	0.009926
-0.084874	-0.055344	0.029530	0.070109	-0.057202	-0.012907	0.040355	0.140315	0.040144	0.010007	-0.004919	0.015072
-0.085201	-0.055043	0.030158	0.070122	-0.057680	-0.012442	0.054464	0.144988	0.039844	0.015032	-0.005081	0.014951
-0.075026	-0.050309	0.024717	0.062667	-0.049871	-0.012796	0.064982	0.145559	0.040226	0.019391	-0.004939	0.015026
-0.069895	-0.045322	0.024574	0.057608	-0.047235	-0.010374	0.070011	0.149304	0.044348	0.020335	-0.000170	0.019895
-0.070201	-0.044873	0.025327	0.057537	-0.047764	-0.009773	0.074432	0.151172	0.046255	0.024821	0.000048	0.019912
-0.059669	-0.034832	0.024836	0.047250	-0.042253	-0.004998	0.075711	0.169558	0.064349	0.030197	-0.000494	0.020092
-0.056051	-0.029797	0.026254	0.042924	-0.041153	-0.001771	0.079360	0.175014	0.070363	0.034209	-0.000097	0.019898
-0.032856	-0.024766	0.008091	0.028811	-0.020473	-0.008337	0.080343	0.179957	0.069809	0.035635	0.009733	0.019977
-0.023172	-0.020762	0.002410	0.021967	-0.012791	-0.009176	0.084713	0.189349	0.070445	0.038956	0.020087	0.019514
-0.075826	-0.013831	0.061995	0.044828	-0.068910	0.024082	0.085227	0.195838	0.075087	0.041640	0.029924	0.030305
-0.083835	-0.011799	0.072036	0.047817	-0.077936	0.030119	0.080093	0.198854	0.074496	0.043605	0.040092	0.034325
-0.107148	-0.038429	0.068718	0.072789	-0.087933	0.015145	0.080654	0.201266	0.075970	0.046595	0.049694	0.036129
-0.101808	-0.031598	0.070211	0.066703	-0.086010	0.019306	0.079228	0.228858	0.103562	0.078578	0.055113	0.063921
-0.094320	-0.019505	0.074815	0.056912	-0.084568	0.027655	0.081392	0.236109	0.116135	0.086187	0.059877	0.070971
-0.090591	-0.015081	0.075510	0.052836	-0.083050	0.030214	0.103288	0.239522	0.119854	0.084646	0.065212	0.075102
-0.079539	-0.004339	0.075200	0.041939	-0.077369	0.035430	0.101200	0.235483	0.115483	0.085284	0.069478	0.075144
-0.076040	0.004344	0.080384	0.035848	-0.078212	0.042364	0.099016	0.234900	0.114717	0.089833	0.070743	0.075386
-0.068769	0.011023	0.079791	0.028873	-0.074280	0.045407	0.095951	0.229763	0.110449	0.089751	0.068990	0.074686
-0.056449	0.023808	0.080257	0.016320	-0.068353	0.052033	0.094228	0.231019	0.109977	0.090586	0.070845	0.075701
-0.037889	0.041708	0.079597	-0.001909	-0.058743	0.060652	0.090437	0.259025	0.134964	0.119670	0.104292	0.104264
0.007549	0.083194	0.075644	-0.045372	-0.034047	0.079419	0.089426	0.265403	0.160023	0.145419	0.125586	0.124938
0.011927	0.086865	0.074938	-0.049396	-0.031505	0.080901	0.085155	0.264978	0.160248	0.150332	0.130319	0.129652
0.008888	0.083984	0.075097	-0.046436	-0.033105	0.079540	0.084575	0.265080	0.159821	0.150475	0.135080	0.130832
0.010878	0.085564	0.074686	-0.048221	-0.031904	0.080125	0.084846	0.264826	0.159304	0.154742	0.139913	0.134186
0.014259	0.084809	0.070550	-0.049534	-0.028145	0.077680	0.080563	0.259688	0.160996	0.155375	0.145090	0.135538
0.025796	0.095840	0.070045	-0.060818	-0.022124	0.082942	0.079354	0.255037	0.178850	0.160226	0.149980	0.144373
0.043680	0.113621	0.069941	-0.078651	-0.013130	0.091781	0.075633	0.254779	0.175737	0.159933	0.155139	0.150662
0.036145	0.106064	0.069919	-0.071104	-0.016887	0.087992	0.074603	0.249586	0.174207	0.165993	0.159817	0.159649
0.034057	0.099040	0.064983	-0.066549	-0.015463	0.082012	0.070589	0.245251	0.170794	0.189239	0.165557	0.165129
0.045948	0.110987	0.065038	-0.078468	-0.009545	0.088012	0.069486	0.245033	0.169422	0.186139	0.169368	0.169997
0.068786	0.134267	0.065481	-0.101526	0.001652	0.099874	0.064742	0.235376	0.164835	0.183885	0.165502	0.175103
0.070713	0.135697	0.064984	-0.103205	0.002864	0.100341	0.064985	0.224999	0.164903	0.180374	0.164834	0.179891
0.069352	0.134766	0.065414	-0.102059	0.001969	0.100090	0.065241	0.220010	0.165324	0.180269	0.160049	0.185009
0.075284	0.135195	0.059912	-0.105239	0.007686	0.097553	0.060574	0.210110	0.160535	0.180147	0.160059	0.184955
0.075349	0.134950	0.059601	-0.105150	0.007874	0.097276	0.059382	0.199982	0.159507	0.175374	0.160011	0.180599
0.075081	0.135230	0.060150	-0.105156	0.007466	0.097690	0.055387	0.194782	0.155218	0.174890	0.155100	0.179605
0.075397	0.134841	0.059444	-0.105119	0.007977	0.097142	0.054307	0.180014	0.154607	0.170069	0.154644	0.175714
0.065117	0.120311	0.055194	-0.092714	0.004962	0.087752	0.050763	0.170058	0.149974	0.170022	0.150060	0.174333
0.055718	0.110111	0.054393	-0.082915	0.000663	0.082252	0.049311	0.160007	0.150418	0.169652	0.149670	0.170740
0.039123	0.094448	0.055326	-0.066785	-0.008102	0.074887	0.045336	0.144927	0.149784	0.155481	0.149693	0.169276
0.032195	0.086610	0.054415	-0.059403	-0.011110	0.070513	0.044878	0.135434	0.140581	0.144905	0.140079	0.155354
0.053063	0.108218	0.055154	-0.080640	-0.001046	0.081686	0.045083	0.125032	0.134373	0.135110	0.129993	0.144359
0.036537	0.096040	0.059502	-0.066289	-0.011482	0.077771	0.044943	0.110287	0.125688	0.124966	0.120138	0.135215
0.019105	0.079308	0.060202	-0.049207	-0.020548	0.069755	0.045025	0.100145	0.119507	0.115043	0.109643	0.124864
0.000435	0.065280	0.064845	-0.032857	-0.032205	0.065062	0.044963	0.089575	0.110965	0.104541	0.100129	0.115076
-0.015122	0.050453	0.065575	-0.017665	-0.040348	0.058014	0.045056	0.081112	0.104958	0.090109	0.095116	0.104998
-0.025409	0.040107	0.065516	-0.007349	-0.045462	0.052811	0.044943	0.068303	0.090196	0.079543	0.080109	0.095003
-0.039812	0.029770	0.069582	0.005021	-0.054697	0.049676	0.045115	0.061872	0.079566	0.069864	0.069619	0.084958
-0.049910	0.020650	0.070560	0.014630	-0.060235	0.045605	0.044406	0.087957	0.070173	0.055399	0.060137	0.074985
-0.055019	0.014858	0.069876	0.020080	-0.062447	0.042367	0.040685	0.076224	0.059923	0.045144	0.049947	0.065032
-0.055452	0.010138	0.065590	0.022657	-0.060521	0.037864	0.039430	0.063726	0.050001	0.034686	0.039979	0.054926
-0.059808	0.004767	0.064576	0.027520	-0.062192	0.034671	0.035167	0.055485	0.040128	0.029927	0.030147	0.045171
-0.060374	0.000355	0.060728	0.030009	-0.060551	0.030542	0.035379	0.044647	0.034926	0.029610	0.024955	0.039894
-0.065168	-0.005950	0.059218	0.035559	-0.062193	0.026634	0.034986	0.035306	0.030642	0.025003	0.020033	0.035662
-0.064981	-0.009196	0.055785	0.037088	-0.060383	0.023294	0.030406	0.024603	0.029405	0.024603	0.014910	0.034394
-0.070828	-0.016469	0.054360	0.043649	-0.062594	0.018945	0.030031	0.019982	0.025178	0.024810	0.010269	0.030184
-0.093502	-0.043587	0.049915	0.068545	-0.071709	0.003164	0.029511	0.020002	0.024923	0.020524	0.009445	0.029920
-0.090604	-0.041090	0.049514	0.065847	-0.070059	0.004212	0.025140	0.020008	0.020023	0.019439	0.004976	0.025029
-0.084319	-0.039516	0.044803	0.061918	-0.064561	0.002643	0.024471	0.019951	0.015003	0.014851	0.000080	0.019991
-0.080188	-0.035638	0.044550	0.057913	-0.062369	0.004456	0.025086	0.020070	0.014823	0.014711	-0.005275	0.019838
-0.074669	-0.034474	0.040194	0.054571	-0.057431	0.002860	0.019925	0.019411	0.010493	0.014755	-0.010207	0.015469
-0.090843	-0.051396	0.039447	0.071119	-0.065145	-0.005974	0.020061	0.015666	0.009471	0.009321	-0.010655	0.014505
-0.114158	-0.074181	0.039977	0.094170	-0.077068	-0.017102	0.019963	0.014419	0.004815	0.005222	-0.019506	0.009767
-0.110780	-0.070599	0.040181	0.090690	-0.075480	-0.015209	0.015058	0.010193	0.004761	0.004766	-0.030073	0.009835
-0.108986	-0.069428	0.039557	0.089207	-0.074271	-0.014935	0.015322	0.010360	0.004643	0.000459	-0.034425	0.009496
-0.110666	-0.070236	0.040430	0.090451	-0.075548	-0.014903	0.015213	0.010015	0.000044	-0.000042	-0.035074	0.005619
-0.093955	-0.065298	0.028657	0.079626	-0.061306	-0.018320	0.009366	0.005383	-0.000470	-0.004624	-0.034991	0.004955
-0.091855	-0.065091	0.026764	0.078473	-0.059309	-0.019163	0.010615	0.004895	0.000030	-0.009829	-0.035025	0.005035
-0.132438	-0.064489	0.067949	0.098464	-0.100193	0.001730	0.009003	0.000009	-0.005024	-0.010576	-0.034999	0.004554
-0.127263	-0.060151	0.067112	0.093707	-0.097187	0.003480	-0.008783	0.000026	-0.005014	-0.014334	-0.035024	0.000074
-0.124506	-0.059516	0.064990	0.092011	-0.094748	0.002737	-0.005687	-0.000569	-0.004948	-0.015631	-0.035004	-0.000476
-0.125321	-0.060091	0.065229	0.092706	-0.095275	0.002569	-0.004483	-0.009768	-0.010068	-0.019701	-0.035004	0.000199
-0.124783	-0.060392	0.064391	0.092587	-0.094587	0.001999	-0.005234	-0.015455	-0.009479	-0.020066	-0.035004	-0.000522
-0.130291	-0.064918	0.065373	0.097604	-0.097832	0.000228	-0.004905	-0.025001	-0.010131	-0.020009	-0.035015	-0.004905
-0.125071	-0.065550	0.059521	0.095310	-0.092296	-0.003015	-0.004508	-0.029354	-0.014519	-0.019947	-0.034997	-0.005428
-0.124562	-0.064652	0.059910	0.094607	-0.092236	-0.002371	-0.000273	-0.025281	-0.015032	-0.020298	-0.034990	-0.005136
-0.125313	-0.065336	0.059978	0.095325	-0.092645	-0.002679	0.000060	-0.024959	-0.015421	-0.024436	-0.035004	-0.009508
-0.124635	-0.064552	0.060083	0.094594	-0.092359	-0.002234	-0.000050	-0.025061	-0.019966	-0.025036	-0.035005	-0.010007
-0.125733	-0.065792	0.059941	0.095763	-0.092837	-0.002926	0.000079	-0.024426	-0.020407	-0.025003	-0.035014	-0.009965
-0.118806	-0.058895	0.059911	0.088850	-0.089358	0.000508	-0.000303	-0.020325	-0.020132	-0.024998	-0.034969	-0.010278
-0.111850	-0.056863	0.054987	0.084356	-0.083418	-0.000938	-0.004440	-0.019918	-0.024540	-0.025003	-0.035037	-0.014461
-0.138181	-0.083130	0.055051	0.110656	-0.096616	-0.014040	-0.004992	-0.020082	-0.024947	-0.025004	-0.034956	-0.014991
-0.136638	-0.081202	0.055436	0.108920	-0.096037	-0.012883	-0.005094	-0.019406	-0.025121	-0.025008	-0.035092	-0.015090
-0.134249	-0.079261	0.054988	0.106755	-0.094619	-0.012136	-0.004668	-0.015313	-0.024667	-0.024975	-0.034828	-0.014689
-0.134765	-0.080434	0.054332	0.107599	-0.094548	-0.013051	-0.000620	-0.014929	-0.020598	-0.025020	-0.035480	-0.010582
-0.129982	-0.079099	0.050883	0.104541	-0.090432	-0.014108	0.000090	-0.015006	-0.019967	-0.024977	-0.034931	-0.009973
-0.125415	-0.075845	0.049570	0.100630	-0.087493	-0.013137	-0.000104	-0.015066	-0.020012	-0.025045	-0.030454	-0.010005
-0.125186	-0.074598	0.050588	0.099892	-0.087887	-0.012005	0.000169	-0.014687	-0.019992	-0.024914	-0.029947	-0.009996
-0.124150	-0.075603	0.048547	0.099877	-0.086348	-0.013528	-0.000490	-0.010594	-0.019999	-0.025154	-0.030005	-0.010000
-0.125866	-0.074872	0.050995	0.100369	-0.088430	-0.011939	0.000093	-0.009937	-0.020007	-0.024350	-0.030012	-0.010003
-0.118025	-0.070510	0.047515	0.094267	-0.082770	-0.011497	0.004531	-0.010089	-0.019998	-0.026299	-0.029993	-0.009998
-0.097814	-0.069913	0.027901	0.083863	-0.062858	-0.021006	0.005068	-0.009683	-0.019992	-0.039119	-0.030038	-0.009994
-0.137372	-0.070006	0.067366	0.103689	-0.102369	-0.001320	0.004959	-0.005587	-0.019998	-0.035195	-0.029547	-0.009999
-0.137208	-0.070055	0.067154	0.103631	-0.102181	-0.001450	0.005056	-0.004962	-0.020007	-0.034941	-0.025087	-0.010003
-0.129512	-0.069406	0.060106	0.099459	-0.094809	-0.004650	0.004895	-0.005013	-0.019998	-0.035038	-0.024528	-0.009999
-0.119684	-0.065267	0.054417	0.092475	-0.087050	-0.005425	0.005339	-0.005028	-0.019994	-0.030054	-0.025143	-0.009996
-0.121024	-0.064906	0.056118	0.092965	-0.088571	-0.004394	0.009376	-0.004570	-0.020006	-0.030071	-0.024931	-0.010006
-0.158467	-0.065063	0.093404	0.111765	-0.125936	0.014171	0.010099	-0.000047	-0.019999	-0.029982	-0.025027	-0.009995
-0.155725	-0.064425	0.091300	0.110075	-0.123512	0.013438	0.009899	0.000402	-0.020018	-0.029474	-0.025034	-0.010016
-0.144779	-0.060217	0.084562	0.102498	-0.114671	0.012173	0.010174	0.000126	-0.019972	-0.025266	-0.024714	-0.009975
-0.144714	-0.059993	0.084721	0.102353	-0.114717	0.012364	0.009517	0.004539	-0.020049	-0.024967	-0.020535	-0.010039
-0.140432	-0.059901	0.080531	0.100166	-0.110482	0.010315	0.010092	0.004934	-0.019942	-0.025014	-0.020019	-0.009946
-0.139743	-0.060203	0.079540	0.099973	-0.109642	0.009668	0.014542	0.005080	-0.020116	-0.024499	-0.019936	-0.010097
-0.134750	-0.059787	0.074964	0.097269	-0.104857	0.007588	0.015050	0.005055	-0.019817	-0.020130	-0.020073	-0.009830
-0.145833	-0.075353	0.070480	0.110593	-0.108156	-0.002437	0.014993	0.010005	-0.020528	-0.020425	-0.019860	-0.010488
-0.168695	-0.098787	0.069908	0.133741	-0.119301	-0.014440	0.015009	0.009994	-0.019873	-0.019904	-0.020250	-0.009911
-0.161659	-0.095614	0.066045	0.128637	-0.113852	-0.014785	0.015000	0.010017	-0.015571	-0.015534	-0.018980	-0.005469
-0.159233	-0.094533	0.064701	0.126883	-0.111967	-0.014916	0.015000	0.014913	-0.014619	-0.014771	-0.020839	-0.004933
-0.160327	-0.095189	0.065138	0.127758	-0.112733	-0.015025	0.014998	0.014958	-0.010687	-0.015513	-0.034018	-0.005041
-0.159884	-0.094956	0.064928	0.127420	-0.112406	-0.015014	0.015009	0.015016	-0.009269	-0.014866	-0.030637	-0.004949
-0.160159	-0.095075	0.065084	0.127617	-0.112621	-0.014995	0.014999	0.015555	-0.005690	-0.010544	-0.029423	-0.005104
-0.159538	-0.094659	0.064879	0.127098	-0.112208	-0.014890	0.015001	0.019701	-0.004472	-0.009781	-0.030208	-0.004659
-0.150465	-0.085121	0.065343	0.117793	-0.107904	-0.009889	0.014999	0.020078	0.004693	-0.010486	-0.029884	-0.000623
-0.145126	-0.079573	0.065554	0.112349	-0.105340	-0.007010	0.015006	0.019947	0.010726	-0.009916	-0.030088	0.000095
-0.135137	-0.074839	0.060298	0.104988	-0.097717	-0.007270	0.014999	0.020592	0.014755	-0.005455	-0.029951	-0.000103
-0.125536	-0.070581	0.054955	0.098059	-0.090246	-0.007813	0.014996	0.024690	0.020233	-0.004944	-0.030031	0.000172
-0.113993	-0.064219	0.049775	0.089106	-0.081884	-0.007222	0.014999	0.025062	0.024395	-0.005008	-0.029978	-0.000491
-0.106369	-0.061991	0.044378	0.084180	-0.075374	-0.008806	0.015006	0.025019	0.025079	-0.004999	-0.030027	0.000088
-0.128157	-0.083264	0.044893	0.105710	-0.086525	-0.019185	0.014999	0.024937	0.024985	-0.004995	-0.029989	0.004531
-0.121390	-0.081106	0.040284	0.101248	-0.080837	-0.020411	0.014995	0.025151	0.025023	-0.005042	-0.029994	0.005046
-0.113426	-0.079516	0.033910	0.096471	-0.073668	-0.022803	0.015008	0.024531	0.025007	-0.004541	-0.029998	0.004981
-0.110927	-0.080367	0.030560	0.095647	-0.070743	-0.024904	0.015002	0.025093	0.025009	-0.000080	-0.030013	0.005020
-0.103186	-0.079620	0.023566	0.091403	-0.063376	-0.028027	0.015008	0.029546	0.025023	0.000479	-0.029998	0.004948
-0.106961	-0.080625	0.026336	0.093793	-0.066649	-0.027144	0.014993	0.030046	0.024979	-0.000151	-0.029995	0.005195
-0.132501	-0.078958	0.053543	0.105729	-0.093022	-0.012707	0.015015	0.029995	0.025042	0.000078	-0.030006	0.009949
-0.106683	-0.065687	0.040996	0.086185	-0.073840	-0.012345	0.014987	0.030016	0.024954	-0.000023	-0.030005	0.015020
-0.078955	-0.055007	0.023949	0.066981	-0.051452	-0.015529	0.015038	0.029995	0.025093	-0.000029	-0.030015	0.019996
-0.050168	-0.040430	0.009738	0.045299	-0.029953	-0.015346	0.014912	0.030046	0.024826	0.000244	-0.029979	0.025002
-0.029878	-0.029063	0.000815	0.029470	-0.015347	-0.014124	0.015357	0.029546	0.025481	0.004739	-0.030033	0.029839
-0.080757	-0.057081	0.023676	0.068919	-0.052216	-0.016703	0.014942	0.025093	0.024924	0.005051	-0.029991	0.029958
-0.122350	-0.107651	0.014698	0.115001	-0.068524	-0.046477	0.005196	0.024528	0.020456	-0.004936	-0.029512	0.019660
-0.107862	-0.096984	0.010879	0.102423	-0.059370	-0.043053	-0.000128	0.025151	0.019949	-0.009887	-0.025145	0.010447
-0.126991	-0.083866	0.043125	0.105429	-0.085058	-0.020371	0.005117	0.024931	0.020005	-0.005447	-0.025394	0.029904
-0.111857	-0.070791	0.041066	0.091324	-0.076462	-0.014862	0.004917	0.025027	0.020009	-0.005060	-0.024974	0.045005
-0.099145	-0.060224	0.038921	0.079685	-0.069033	-0.010651	0.005046	0.025047	0.019997	-0.004951	-0.020415	0.039974
-0.084737	-0.044632	0.040106	0.064684	-0.062421	-0.002263	0.009891	0.024706	0.019995	-0.005043	-0.020031	0.039757
-0.071022	-0.035691	0.035331	0.053357	-0.053177	-0.000180	0.009946	0.020565	0.020000	-0.004966	-0.019516	0.040079
-0.094139	-0.058961	0.035178	0.076550	-0.064658	-0.011891	0.010046	0.019984	0.020007	-0.005059	-0.015133	0.040016
-0.100715	-0.065849	0.034866	0.083282	-0.067791	-0.015491	0.010481	0.019997	0.019992	-0.004397	-0.014480	0.039443
-0.099687	-0.064674	0.035013	0.082181	-0.067350	-0.014831	0.014838	0.019997	0.020041	-0.000344	-0.015065	0.035294
-0.095076	-0.065138	0.029939	0.080107	-0.062507	-0.017599	0.014642	0.019995	0.019541	0.000127	-0.009953	0.034934
-0.095029	-0.064940	0.030090	0.079984	-0.062560	-0.017425	0.014990	0.020035	0.015092	-0.000098	-0.010004	0.035043
-0.094914	-0.065000	0.029914	0.079957	-0.062414	-0.017543	0.019682	0.019424	0.014511	0.000119	-0.010042	0.034995
-0.090142	-0.065018	0.025124	0.077580	-0.057633	-0.019947	0.019842	0.015263	0.015151	-0.000181	-0.004926	0.035026
-0.089779	-0.064877	0.024902	0.077328	-0.057341	-0.019988	0.020530	0.014949	0.014907	0.000488	-0.005511	0.034568
-0.090812	-0.065280	0.025531	0.078046	-0.058172	-0.019874	0.019861	0.014966	0.015044	-0.000086	-0.004875	0.030047
-0.088867	-0.063935	0.024932	0.076401	-0.056899	-0.019501	0.015559	0.015082	0.014987	-0.004545	-0.000473	0.029606
-0.086175	-0.066132	0.020043	0.076153	-0.053109	-0.023044	0.014786	0.014823	0.014966	-0.005035	0.000044	0.029993
-0.103186	-0.083468	0.019719	0.093327	-0.061452	-0.031875	0.015491	0.015278	0.015048	-0.005012	0.000438	0.030389
-0.095801	-0.080672	0.015130	0.088236	-0.055465	-0.032771	0.014924	0.014176	0.014913	-0.004970	0.004950	0.029977
-0.094879	-0.078929	0.015951	0.086904	-0.055415	-0.031489	0.010456	0.015521	0.015127	-0.005062	0.005457	0.025428
-0.083811	-0.075353	0.008459	0.079582	-0.046135	-0.033447	0.009956	0.018938	0.014963	-0.004713	0.004941	0.024952
-0.087540	-0.075277	0.012264	0.081408	-0.049902	-0.031506	0.010002	0.021498	0.025030	-0.000522	0.004598	0.025015
-0.132477	-0.075072	0.057405	0.103774	-0.094941	-0.008834	0.010035	0.043748	0.034980	-0.000047	-0.000081	0.024974
-0.122246	-0.070365	0.051880	0.096305	-0.087063	-0.009242	0.009413	0.041055	0.030753	0.000144	-0.004901	0.025078
-0.113669	-0.070062	0.043607	0.091866	-0.078638	-0.013228	0.005305	0.039612	0.029793	-0.000388	-0.009947	0.024678
-0.111004	-0.069487	0.041517	0.090245	-0.076260	-0.013985	0.004898	0.040480	0.025081	-0.004283	-0.009971	0.020582
-0.093364	-0.065178	0.028186	0.079271	-0.060775	-0.018496	0.005075	0.035374	0.024954	-0.005270	-0.015044	0.019971
-0.092145	-0.064453	0.027692	0.078299	-0.059919	-0.018380	0.004387	0.035133	0.025080	-0.003968	-0.019952	0.020004
-0.081663	-0.065072	0.016591	0.073367	-0.049127	-0.024240	0.000320	0.034933	0.019940	-0.006018	-0.020149	0.019986
-0.018546	-0.059916	-0.041370	0.039231	0.011412	-0.050643	-0.000101	0.034653	0.020499	-0.023838	-0.024971	0.019998
-0.027546	-0.060072	-0.032526	0.043809	0.002490	-0.046299	0.000047	0.030006	0.019947	-0.021273	-0.029931	0.020006
-0.046258	-0.059958	-0.013700	0.053108	-0.016279	-0.036829	-0.000049	0.029649	0.015370	-0.019257	-0.029954	0.019998
-0.084712	-0.055060	0.029652	0.069886	-0.057182	-0.012704	0.000180	0.029818	0.015227	-0.020307	-0.025115	0.019992
-0.129607	-0.055063	0.074544	0.092335	-0.102075	0.009740	0.005011	0.025512	0.015171	-0.019837	-0.025058	0.019998
-0.094220	-0.054926	0.039294	0.074573	-0.066757	-0.007816	0.009919	0.024992	0.010548	-0.020116	-0.024940	0.020007
-0.061913	-0.055129	0.006784	0.058521	-0.034349	-0.024172	0.015222	0.025048	0.009477	-0.019943	-0.025124	0.019998
-0.082960	-0.054618	0.028342	0.068789	-0.055651	-0.013138	0.015125	0.024698	0.005145	-0.020037	-0.024656	0.019995
-0.071622	-0.050638	0.020984	0.061130	-0.046303	-0.014827	0.009832	0.020564	0.005373	-0.019999	-0.020626	0.019998
-0.063493	-0.049904	0.013589	0.056699	-0.038541	-0.018158	0.005734	0.019981	0.004991	-0.019987	-0.019917	0.020008
-0.071945	-0.050135	0.021810	0.061040	-0.046878	-0.014163	0.004882	0.019996	0.000358	-0.020076	-0.020100	0.019998
-0.093314	-0.049657	0.043657	0.071486	-0.068486	-0.003000	0.005055	0.019988	0.000109	-0.019683	-0.019825	0.019995
-0.091418	-0.050075	0.041344	0.070746	-0.066381	-0.004365	0.004970	0.019998	-0.000658	-0.015581	-0.020479	0.019998
-0.094195	-0.055174	0.039021	0.074684	-0.066608	-0.008077	0.005021	0.020005	-0.004266	-0.014973	-0.019922	0.020008
-0.090445	-0.049990	0.040455	0.070218	-0.065450	-0.004767	0.004989	0.019998	-0.005181	-0.015005	-0.015455	0.019996
-0.089462	-0.049948	0.039514	0.069705	-0.064488	-0.005217	0.005004	0.019992	-0.004665	-0.014995	-0.014943	0.019994
-0.089880	-0.050278	0.039602	0.070079	-0.064741	-0.005338	0.004994	0.019998	-0.000599	-0.015000	-0.014998	0.019999
-0.084336	-0.045506	0.038830	0.064921	-0.061583	-0.003338	0.005002	0.020007	0.000039	-0.015006	-0.015030	0.020006
-0.080090	-0.044989	0.035101	0.062540	-0.057596	-0.004944	0.004996	0.019998	-0.000013	-0.014998	-0.014416	0.020003
-0.080050	-0.045024	0.035026	0.062537	-0.057538	-0.004999	0.004999	0.019995	0.000003	-0.014996	-0.010284	0.019987
-0.074351	-0.044480	0.029871	0.059416	-0.052111	-0.007305	0.005000	0.019998	-0.000005	-0.015000	-0.009917	0.020011
-0.070433	-0.040197	0.030236	0.055315	-0.050335	-0.004981	0.005002	0.020008	0.000004	-0.015030	-0.010016	0.019992
-0.069038	-0.039352	0.029686	0.054195	-0.049362	-0.004833	0.005000	0.019998	-0.000003	-0.014434	-0.010007	0.020005
-0.065801	-0.040228	0.025573	0.053014	-0.045687	-0.007327	0.004999	0.019994	0.000003	-0.010289	-0.009902	0.020141
-0.058487	-0.034633	0.023854	0.046560	-0.041170	-0.005390	0.005000	0.020006	0.000001	-0.009951	-0.010506	0.024898
-0.057545	-0.035535	0.022009	0.046540	-0.039777	-0.006763	0.005002	0.019999	0.000001	-0.009988	-0.015020	0.024958
-0.050593	-0.033444	0.017149	0.042018	-0.033871	-0.008147	0.005000	0.020016	0.000000	-0.010066	-0.019954	0.020451
-0.060421	-0.036852	0.023569	0.048636	-0.041995	-0.006641	0.004999	0.019973	0.000001	-0.009849	-0.025063	0.019950
-0.153987	-0.072951	0.081036	0.113469	-0.117511	0.004042	0.005000	0.020039	-0.000007	-0.010470	-0.029913	0.020005
-0.114031	-0.071636	0.042395	0.092834	-0.078213	-0.014620	0.005002	0.019950	0.000009	-0.009927	-0.034977	0.020008
-0.067727	-0.069471	-0.001744	0.068599	-0.032992	-0.035607	0.005000	0.020093	-0.000017	-0.005450	-0.034919	0.019998
-0.055546	-0.065622	-0.010076	0.060584	-0.022735	-0.037849	0.004999	0.019832	0.000022	-0.004953	-0.030129	0.019994
-0.044949	-0.065170	-0.020221	0.055060	-0.012364	-0.042695	0.005001	0.020481	-0.000040	-0.005004	-0.030047	0.020000
-0.059498	-0.065104	-0.005606	0.062301	-0.026946	-0.035355	0.005008	0.019925	0.000058	-0.005002	-0.029947	0.020006
-0.064869	-0.060417	0.004451	0.062643	-0.034660	-0.027983	0.004967	0.015456	-0.000095	-0.004992	-0.030125	0.019998
-0.075087	-0.059723	0.015364	0.067405	-0.045226	-0.022180	0.005031	0.014950	0.000167	-0.005041	-0.029656	0.019991
-0.079993	-0.055537	0.024455	0.067765	-0.052224	-0.015541	0.004921	0.015006	-0.000483	-0.004543	-0.025629	0.019998
-0.064771	-0.054994	0.009777	0.059882	-0.037274	-0.022608	0.005104	0.015006	0.000085	-0.000080	-0.024919	0.020008
-0.050239	-0.055560	-0.005320	0.052900	-0.022459	-0.030440	0.004835	0.014994	0.004542	0.000482	-0.025099	0.019996
-0.039149	-0.059668	-0.020519	0.049408	-0.009315	-0.040094	0.005219	0.015042	0.005045	-0.000159	-0.024824	0.019995
-0.025722	-0.060074	-0.034352	0.042898	0.004315	-0.047213	0.004638	0.014549	0.004992	0.000096	-0.025479	0.019992
-0.060894	-0.059985	0.000909	0.060440	-0.030902	-0.029538	0.005426	0.010081	0.005002	-0.000054	-0.024924	0.020014
-0.088231	-0.060005	0.028226	0.074118	-0.058228	-0.015890	-0.001612	0.009529	0.005001	0.000034	-0.020455	0.019986
-0.082830	-0.059986	0.022844	0.071408	-0.052837	-0.018571	-0.002949	0.010146	0.004998	0.000031	-0.019951	0.020009
-0.132453	-0.059967	0.072486	0.096210	-0.102470	0.006260	0.032992	0.009932	0.005004	-0.000439	-0.019999	0.019971
-0.105019	-0.060074	0.044945	0.082546	-0.074982	-0.007564	0.031144	0.010020	0.004971	-0.004922	-0.020042	0.020050
-0.082211	-0.059907	0.022304	0.071059	-0.052257	-0.018802	0.028878	0.010048	0.005585	-0.005475	-0.019414	0.019910
-0.096036	-0.060152	0.035884	0.078094	-0.065960	-0.012134	0.030305	0.009706	0.009692	-0.004824	-0.015314	0.020304
-0.029588	-0.059516	-0.029927	0.044552	0.000170	-0.044722	0.030227	0.005565	0.010096	-0.005100	-0.014912	0.024416
-0.032050	-0.060110	-0.028060	0.046080	-0.001995	-0.044085	0.030096	0.004978	0.009962	-0.004907	-0.015050	0.025041
-0.051319	-0.064538	-0.013219	0.057928	-0.019050	-0.038878	0.025361	0.004983	0.010039	-0.005623	-0.014964	0.024994
-0.094579	-0.065038	0.029541	0.079809	-0.062060	-0.017749	0.025024	0.005005	0.009989	-0.009658	-0.015059	0.024995
-0.134569	-0.064992	0.069576	0.099780	-0.102073	0.002292	0.024988	0.004968	0.010023	-0.010102	-0.014537	0.024997
-0.126265	-0.065029	0.061236	0.095647	-0.093750	-0.001897	0.025005	0.005036	0.009988	-0.009957	-0.010090	0.025010
-0.119434	-0.065003	0.054431	0.092218	-0.086932	-0.005286	0.025069	0.004938	0.010038	-0.010043	-0.009521	0.025005
-0.115280	-0.064995	0.050284	0.090138	-0.082782	-0.007355	0.024683	0.005071	0.009796	-0.009949	-0.010191	0.024947
-0.109585	-0.065003	0.044582	0.087294	-0.077083	-0.010210	0.020584	0.004863	0.005018	-0.010478	-0.009491	0.025458
-0.106199	-0.065038	0.041161	0.085618	-0.073680	-0.011938	0.019966	0.005242	0.000004	-0.014928	-0.005080	0.029933
-0.097679	-0.065000	0.032679	0.081340	-0.065179	-0.016161	0.019991	0.003935	-0.005059	-0.015490	-0.004589	0.030454
-0.092613	-0.065068	0.027545	0.078841	-0.060079	-0.018762	0.020023	0.006044	-0.009974	-0.014881	-0.004999	0.029855
-0.127167	-0.064605	0.062562	0.095886	-0.094865	-0.001021	0.019533	0.023749	-0.015010	-0.015044	-0.005410	0.030028
-0.116616	-0.059492	0.057124	0.088054	-0.086870	-0.001184	0.015090	0.021378	-0.014367	-0.015432	-0.004926	0.030041
-0.103376	-0.055080	0.048296	0.079228	-0.075836	-0.003392	0.014510	0.019074	-0.004859	-0.015195	-0.000509	0.029902
-0.100877	-0.055070	0.045807	0.077974	-0.073342	-0.004632	0.015153	0.020545	0.000262	-0.005025	0.000186	0.030159
-0.083522	-0.049456	0.034066	0.066489	-0.058794	-0.007695	0.014941	0.019390	0.005214	0.005369	-0.000481	0.029709
-0.077645	-0.045643	0.032002	0.061644	-0.054823	-0.006821	0.014627	0.021178	0.015198	0.009905	0.000077	0.030336
-0.066687	-0.044602	0.022086	0.055645	-0.044387	-0.011258	0.015261	0.018842	0.019437	0.019666	0.004538	0.023576
-0.044361	-0.030334	0.014028	0.037348	-0.029195	-0.008153	0.030140	0.026642	0.025794	0.029892	0.005038	0.021324
-0.100884	-0.014841	0.086043	0.057862	-0.093463	0.035601	0.044111	0.063040	0.049453	0.035074	0.004978	0.048207
-0.056636	-0.000693	0.055942	0.028665	-0.056289	0.027625	0.040526	0.061193	0.055491	0.039379	0.004983	0.046844
-0.011185	0.010095	0.021280	0.000545	-0.016232	0.015688	0.034955	0.058794	0.054853	0.040078	0.005537	0.044145
-0.017429	0.020044	0.037473	-0.001308	-0.027451	0.028759	0.030012	0.060509	0.055115	0.040028	0.009883	0.045303
0.037482	0.029918	-0.007564	-0.033700	0.022523	0.011177	0.025444	0.059303	0.054937	0.039961	0.015044	0.044873
0.010583	0.040601	0.030018	-0.025592	-0.009718	0.035309	0.024981	0.055272	0.055107	0.040126	0.019974	0.044651
-0.018868	0.049472	0.068340	-0.015302	-0.043604	0.058906	0.020412	0.054428	0.054889	0.039304	0.025034	0.044832
-0.012590	0.045739	0.058329	-0.016575	-0.035459	0.052034	0.014994	0.055274	0.055347	0.035542	0.029963	0.054664
-0.052796	0.044234	0.097029	0.004281	-0.074913	0.070632	0.009612	0.054453	0.059383	0.034148	0.035093	0.059982
-0.010631	0.040834	0.051465	-0.015101	-0.031048	0.046150	0.005421	0.050133	0.060106	0.030978	0.039343	0.064964
0.033650	0.039318	0.005667	-0.036484	0.013992	0.022492	0.004332	0.049569	0.059938	0.028976	0.040095	0.065423
0.006497	0.035421	0.028924	-0.020959	-0.011213	0.032172	-0.015136	0.049991	0.060070	0.026003	0.039974	0.065110
0.024672	0.034470	0.009798	-0.029571	0.007437	0.022134	-0.029803	0.050407	0.059878	0.024126	0.040031	0.069531
0.034553	0.030111	-0.004442	-0.032332	0.019498	0.012835	-0.026121	0.049944	0.060258	0.026940	0.039990	0.069994
0.022267	0.029593	0.007326	-0.025930	0.007471	0.018459	-0.024302	0.045506	0.058998	0.053443	0.040050	0.070043
0.002446	0.029846	0.027400	-0.016146	-0.012477	0.028623	-0.020496	0.044797	0.060998	0.051451	0.039949	0.069977
-0.062616	0.025577	0.088193	0.018520	-0.075404	0.056885	-0.019294	0.045483	0.078943	0.049044	0.040104	0.070022
-0.015480	0.024332	0.039812	-0.004426	-0.027646	0.032072	-0.015803	0.044925	0.075623	0.045373	0.039901	0.070036
0.022026	0.020649	-0.001377	-0.021337	0.011701	0.009636	-0.014273	0.040478	0.069361	0.044410	0.040202	0.070003
-0.005681	0.019657	0.025338	-0.006988	-0.015510	0.022498	-0.010489	0.039913	0.065266	0.045029	0.039711	0.070028
0.056349	0.015590	-0.040759	-0.035970	0.048554	-0.012585	-0.009284	0.040064	0.059886	0.040406	0.040744	0.069991
0.026326	0.014514	-0.011812	-0.020420	0.019069	0.001351	-0.005752	0.039959	0.055115	0.039599	0.039340	0.070087
-0.013766	0.009691	0.023457	0.002038	-0.018611	0.016574	-0.004359	0.039586	0.049433	0.034708	0.041365	0.069919
-0.012317	0.010130	0.022446	0.001094	-0.017382	0.016288	-0.000104	0.034806	0.040214	0.035066	0.058637	0.070279
-0.057906	0.009941	0.067847	0.023983	-0.062877	0.038894	0.005020	0.029799	0.035337	0.034909	0.041060	0.070071
-0.041409	0.000931	0.042340	0.020239	-0.041874	0.021635	0.009886	0.029503	0.030037	0.024882	0.024220	0.060570
-0.020376	-0.011454	0.008922	0.015915	-0.014649	-0.001266	0.010027	0.025477	0.020327	0.019718	0.005502	0.049872
0.006551	-0.018480	-0.025031	0.005965	0.015791	-0.021755	0.004863	0.024890	0.015102	0.014779	-0.010255	0.040089
0.028108	-0.027359	-0.055467	-0.000375	0.041788	-0.041413	0.000160	0.019564	0.009533	0.005545	-0.014734	0.029901
-0.043429	-0.062924	-0.019495	0.053176	-0.011967	-0.041210	-0.005011	0.015105	0.005048	-0.000020	-0.019692	0.020148
-0.069990	-0.061705	0.008285	0.065847	-0.039137	-0.026710	-0.004860	0.014469	0.004572	-0.005008	-0.019645	0.009706
-0.040451	-0.058916	-0.018464	0.049684	-0.010994	-0.038690	-0.000210	0.010348	0.000068	-0.010036	-0.025090	0.004967
-0.044596	-0.055741	-0.011145	0.050168	-0.016725	-0.033443	0.000455	0.009371	0.000427	-0.014977	-0.030235	0.004583
-0.055340	-0.054251	0.001090	0.054795	-0.028215	-0.026580	0.004968	0.005666	-0.000083	-0.020083	-0.030552	0.000062
-0.070365	-0.065560	0.004805	0.067963	-0.037585	-0.030377	0.004372	0.004427	-0.004559	-0.024919	-0.034511	-0.000501
-0.099740	-0.084156	0.015584	0.091948	-0.057662	-0.034286	-0.004921	0.000148	-0.005024	-0.030162	-0.035086	0.000019
-0.104965	-0.080912	0.024053	0.092939	-0.064509	-0.028430	-0.010293	0.000388	-0.005444	-0.030150	-0.035007	-0.005042
-0.105527	-0.074947	0.030580	0.090237	-0.068054	-0.022183	-0.004884	-0.000075	-0.009953	-0.025652	-0.035016	-0.005010
-0.078401	-0.069926	0.008475	0.074163	-0.043438	-0.030726	-0.000090	-0.004507	-0.010419	-0.024349	-0.035020	-0.004969
-0.062952	-0.065275	-0.002323	0.064114	-0.030315	-0.033799	0.000140	-0.005369	-0.010136	-0.020474	-0.034991	-0.010054
-0.106452	-0.059162	0.047291	0.082807	-0.076872	-0.005935	0.004585	-0.009446	-0.014543	-0.019284	-0.035024	-0.009509
-0.083117	-0.060724	0.022393	0.071920	-0.052755	-0.019165	0.005000	-0.010082	-0.014976	-0.015799	-0.034982	-0.010090
-0.073600	-0.078928	-0.005328	0.076264	-0.034136	-0.042128	0.009645	-0.009462	-0.014524	-0.014247	-0.035058	-0.014552
-0.050677	-0.075963	-0.025286	0.063320	-0.012695	-0.050625	0.014747	-0.005220	-0.010201	-0.010498	-0.034707	-0.015169
-0.029644	-0.074671	-0.045027	0.052157	0.007692	-0.059849	0.015618	-0.000352	-0.010358	-0.009240	-0.030561	-0.019925
-0.054350	-0.075245	-0.020895	0.064797	-0.016728	-0.048070	0.019214	-0.000218	-0.010123	-0.005845	-0.029451	-0.020102
-0.079795	-0.074886	0.004909	0.077340	-0.042352	-0.034989	0.020766	0.004828	-0.005300	-0.004280	-0.025455	-0.019922
-0.115979	-0.075215	0.040764	0.095597	-0.078372	-0.017225	0.024547	0.009036	-0.005586	-0.000622	-0.025135	-0.025198
-0.143584	-0.074970	0.068614	0.109277	-0.106099	-0.003178	0.030759	0.011191	-0.005107	0.000530	-0.019527	-0.024489
-0.121979	-0.075240	0.046738	0.098610	-0.084359	-0.014251	0.034526	0.028857	-0.000941	0.005050	-0.020578	-0.025275
-0.099471	-0.074887	0.024584	0.087179	-0.062027	-0.025151	0.036723	0.051620	0.000386	0.004851	-0.028439	-0.029488
-0.060246	-0.075689	-0.015443	0.067968	-0.022402	-0.045566	0.043471	0.068026	-0.001428	-0.016055	-0.036943	-0.030504
-0.025878	-0.074237	-0.048359	0.050057	0.011240	-0.061298	0.052402	0.088082	0.001191	-0.028845	-0.057623	-0.029515
-0.049980	-0.061449	-0.011469	0.055715	-0.019256	-0.036459	0.077167	0.146932	0.032757	-0.012469	-0.047144	-0.031062
-0.079290	-0.048613	0.030676	0.063951	-0.054983	-0.008968	0.087912	0.188675	0.071439	0.012184	-0.032942	-0.028387
-0.076170	0.004371	0.080542	0.035899	-0.078356	0.042456	0.112379	0.283606	0.169059	0.097983	0.028508	0.018757
-0.043929	0.059398	0.103328	-0.007735	-0.073628	0.081363	0.107912	0.356353	0.265773	0.181482	0.095843	0.065575
0.069812	0.121343	0.051531	-0.095578	0.009141	0.086437	0.097882	0.405554	0.344889	0.258830	0.154921	0.104956
0.188929	0.187944	-0.000985	-0.188436	0.094957	0.093479	0.057822	0.429122	0.425128	0.346896	0.225660	0.155437
0.318401	0.248025	-0.070376	-0.283213	0.194389	0.088824	0.007655	0.366598	0.491487	0.433914	0.314921	0.229662
0.445538	0.306536	-0.139002	-0.376037	0.292270	0.083767	-0.092517	0.300737	0.519011	0.497497	0.400570	0.309817
0.486550	0.340622	-0.145928	-0.413586	0.316239	0.097347	-0.181693	0.194563	0.497442	0.542927	0.474821	0.369568
0.570492	0.399015	-0.171478	-0.484753	0.370985	0.113769	-0.259429	0.042507	0.473590	0.543103	0.524869	0.436525
0.532618	0.386292	-0.146325	-0.459455	0.339471	0.119984	-0.340251	-0.133014	0.397401	0.539529	0.562462	0.493202
0.490468	0.348650	-0.141818	-0.419559	0.316143	0.103416	-0.424982	-0.391665	0.192521	0.409143	0.516495	0.477206
0.509699	0.226015	-0.283684	-0.367857	0.396691	-0.028834	-0.530452	-0.699936	-0.117572	0.156768	0.360027	0.458663
0.404270	0.176399	-0.227871	-0.290334	0.316070	-0.025736	-0.604608	-1.077515	-0.337435	-0.005150	0.296354	0.441269
0.246860	0.147315	-0.099546	-0.197087	0.173203	0.023884	-0.642184	-1.323376	-0.443656	-0.075405	0.247025	0.424269
0.174026	0.113422	-0.060603	-0.143724	0.117315	0.026409	-0.668242	-1.368843	-0.502369	-0.139600	0.194085	0.401641
0.110634	0.085294	-0.025340	-0.097964	0.067987	0.029977	-0.627510	-1.293151	-0.537968	-0.195292	0.150822	0.379223
0.055647	0.039471	-0.016177	-0.047559	0.035912	0.011647	-0.584030	-1.199594	-0.538269	-0.245570	0.089211	0.331166
0.002859	0.000669	-0.002190	-0.001764	0.002525	-0.000761	-0.541469	-1.086805	-0.533056	-0.269701	0.035780	0.284763
-0.072440	-0.020598	0.051842	0.046519	-0.062141	0.015622	-0.493909	-0.975710	-0.492821	-0.260975	0.019060	0.249925
-0.091831	-0.039838	0.051992	0.065834	-0.071911	0.006077	-0.431087	-0.850446	-0.447193	-0.249367	0.005496	0.215016
-0.093414	-0.045489	0.047925	0.069452	-0.070669	0.001218	-0.369362	-0.674395	-0.362690	-0.210907	-0.004868	0.189656
-0.091599	-0.045169	0.046430	0.068384	-0.069015	0.000631	-0.310270	-0.526545	-0.288761	-0.170007	-0.020461	0.164778
-0.094087	-0.049642	0.044446	0.071864	-0.069266	-0.002598	-0.249506	-0.427889	-0.226204	-0.150487	-0.034374	0.134642
-0.091001	-0.050684	0.040316	0.070843	-0.065659	-0.005184	-0.184588	-0.312311	-0.179174	-0.134969	-0.046709	0.105213
-0.098821	-0.059509	0.039313	0.079165	-0.069067	-0.010098	-0.125511	-0.232615	-0.140907	-0.115534	-0.073584	0.089502
-0.110944	-0.075289	0.035655	0.093117	-0.073299	-0.019817	-0.083892	-0.165872	-0.104412	-0.099792	-0.066246	0.080157
-0.129763	-0.094718	0.035044	0.112241	-0.082404	-0.029837	-0.045743	-0.109042	-0.075014	-0.085558	-0.058860	0.069226
-0.083689	-0.053058	0.030630	0.068374	-0.057159	-0.011214	-0.034447	-0.061085	-0.054307	-0.074952	-0.055391	0.055698
-0.048343	-0.018364	0.029979	0.033353	-0.039161	0.005808	-0.025459	-0.038752	-0.035041	-0.064979	-0.049841	0.044872
-0.065705	-0.039984	0.025721	0.052845	-0.045713	-0.007131	-0.014570	-0.024737	-0.014686	-0.054829	-0.045126	0.034883
-0.044325	-0.020241	0.024084	0.032283	-0.034205	0.001922	-0.005036	-0.005163	0.000227	-0.045073	-0.039978	0.029671
-0.090968	-0.070318	0.020650	0.080643	-0.055809	-0.024834	0.004763	0.010002	0.004936	-0.034981	-0.035176	0.030132
-0.092311	-0.073354	0.018957	0.082833	-0.055634	-0.027198	0.014709	0.025206	0.004989	-0.030123	-0.034456	0.029870
-0.104785	-0.068024	0.036760	0.086404	-0.070772	-0.015632	0.035579	0.040014	0.005397	-0.029817	-0.035050	0.030011
-0.144674	-0.071021	0.073653	0.107848	-0.109164	0.001316	0.054388	0.045289	0.009481	-0.030445	-0.029966	0.029946
-0.126122	-0.069391	0.056731	0.097757	-0.091427	-0.006330	0.050520	0.045636	0.010013	-0.029891	-0.029948	0.030028
-0.104756	-0.070410	0.034345	0.087583	-0.069550	-0.018033	0.049549	0.049419	0.010078	-0.025506	-0.030115	0.029968
-0.099986	-0.069697	0.030288	0.084841	-0.065137	-0.019705	0.050138	0.050441	0.010072	-0.024772	-0.024771	0.029991
-0.094642	-0.070191	0.024451	0.082416	-0.059546	-0.022870	0.049981	0.054329	0.015041	-0.025468	-0.025744	0.029983
-0.091120	-0.069962	0.021159	0.080541	-0.056139	-0.024401	0.049997	0.055750	0.014935	-0.024925	-0.024285	0.030046
-0.083804	-0.069467	0.014338	0.076636	-0.049071	-0.027565	0.050097	0.059400	0.015123	-0.020447	-0.026311	0.029415
-0.086929	-0.065310	0.021619	0.076119	-0.054274	-0.021845	0.049839	0.060100	0.019731	-0.019946	-0.044102	0.025307
-0.122755	-0.064851	0.057904	0.093803	-0.090329	-0.003474	0.050293	0.059987	0.020255	-0.020001	-0.041074	0.024910
-0.121979	-0.065157	0.056822	0.093568	-0.089400	-0.004167	0.049183	0.059980	0.019204	-0.020039	-0.039219	0.025052
-0.118426	-0.064854	0.053572	0.091640	-0.085999	-0.005641	0.050541	0.060071	0.020520	-0.019418	-0.040252	0.024971
-0.115892	-0.065175	0.050717	0.090533	-0.083304	-0.007229	0.053887	0.060116	0.023966	-0.015307	-0.039860	0.025008
-0.113883	-0.064718	0.049165	0.089300	-0.081524	-0.007776	0.056563	0.075474	0.026101	-0.014907	-0.040090	0.024986
-0.111724	-0.065891	0.045833	0.088807	-0.078779	-0.010029	0.078661	0.094355	0.043740	-0.015085	-0.039958	0.025016
-0.108669	-0.064316	0.044353	0.086493	-0.076511	-0.009982	0.076221	0.090587	0.040742	-0.014382	-0.040045	0.024992
-0.106715	-0.066470	0.040245	0.086592	-0.073480	-0.013112	0.074230	0.089504	0.039407	-0.010344	-0.039974	0.024994
-0.133726	-0.093528	0.040198	0.113627	-0.086962	-0.026665	0.075467	0.090218	0.040377	-0.009869	-0.040013	0.024995
-0.120096	-0.081419	0.038677	0.100758	-0.079387	-0.021371	0.074079	0.089914	0.039123	-0.010097	-0.040043	0.025010
-0.100697	-0.065257	0.035440	0.082977	-0.068069	-0.014908	0.070861	0.090087	0.035823	-0.009911	-0.039416	0.024998
-0.083722	-0.049362	0.034360	0.066542	-0.059041	-0.007501	0.069599	0.089936	0.034630	-0.009932	-0.035303	0.024994
-0.066920	-0.036635	0.030285	0.051778	-0.048603	-0.003175	0.070609	0.090040	0.035595	-0.004987	-0.034916	0.024998
-0.083265	-0.053254	0.030011	0.068260	-0.056638	-0.011622	0.069871	0.090015	0.034866	-0.005013	-0.035047	0.025010
-0.040980	-0.015568	0.025412	0.028274	-0.033196	0.004922	0.065507	0.090017	0.030502	-0.004973	-0.034987	0.024998
-0.000190	0.024565	0.024755	-0.012188	-0.012472	0.024660	0.064914	0.089969	0.029924	-0.000096	-0.034982	0.024994
-0.009584	0.010541	0.020125	-0.000479	-0.014855	0.015333	0.065006	0.089994	0.030009	0.000022	-0.035032	0.024998
-0.020470	-0.000318	0.020152	0.010394	-0.020311	0.009917	0.065054	0.090036	0.030039	-0.000604	-0.034954	0.025010
-0.029892	-0.010158	0.019734	0.020025	-0.024813	0.004788	0.064401	0.089987	0.029413	-0.004990	-0.035103	0.024998
-0.008796	-0.019728	-0.010932	0.014262	0.001068	-0.015330	0.060309	0.089983	0.025300	-0.009964	-0.034800	0.024994
-0.001715	-0.040980	-0.039265	0.021348	0.018775	-0.040122	0.059882	0.089982	0.024897	-0.014931	-0.035524	0.024998
-0.052264	-0.064128	-0.011864	0.058196	-0.020200	-0.037996	0.060119	0.090043	0.025083	-0.014986	-0.034861	0.025010
-0.071610	-0.056105	0.015505	0.063858	-0.043558	-0.020300	0.059340	0.089968	0.024376	-0.009877	-0.030567	0.024995
-0.089287	-0.049069	0.040218	0.069178	-0.064753	-0.004425	0.055350	0.089989	0.020314	-0.005347	-0.029753	0.024994
-0.100371	-0.040924	0.059447	0.070648	-0.079909	0.009261	0.054796	0.089942	0.019876	-0.004432	-0.030527	0.024992
-0.089599	-0.034157	0.055442	0.061878	-0.072520	0.010642	0.055242	0.090101	0.020073	-0.000547	-0.029867	0.025016
-0.080310	-0.025751	0.054560	0.053030	-0.067435	0.014405	0.054040	0.089819	0.019910	-0.000257	-0.025550	0.024986
-0.074755	-0.019628	0.055127	0.047192	-0.064941	0.017750	0.055688	0.090656	0.020218	0.004980	-0.024776	0.025009
-0.065228	-0.010280	0.054948	0.037754	-0.060088	0.022334	0.069101	0.099581	0.024919	0.010247	-0.025489	0.024963
-0.059379	-0.004318	0.055061	0.031849	-0.057220	0.025372	0.060090	0.095148	0.030060	0.010539	-0.024922	0.025061
-0.055135	-0.000124	0.055012	0.027629	-0.055074	0.027444	0.055987	0.095389	0.034938	0.014369	-0.020456	0.024893
-0.050298	0.004744	0.055042	0.022777	-0.052670	0.029893	0.079202	0.114417	0.040105	0.015902	-0.019945	0.025330
-0.054969	0.000029	0.054997	0.027470	-0.054983	0.027513	0.085394	0.120337	0.044454	0.034086	-0.020001	0.029375
-0.060003	-0.004974	0.055029	0.032489	-0.057516	0.025027	0.084874	0.119909	0.045038	0.040679	-0.020039	0.030104
-0.065010	-0.010012	0.054998	0.037511	-0.060004	0.022493	0.085096	0.120570	0.045007	0.039730	-0.019418	0.029895
-0.069895	-0.014927	0.054968	0.042411	-0.062431	0.020020	0.084935	0.124786	0.044994	0.040175	-0.015307	0.030165
-0.075322	-0.020306	0.055016	0.047814	-0.065169	0.017355	0.085042	0.124609	0.045005	0.039901	-0.014907	0.029509
-0.080006	-0.025023	0.054984	0.052514	-0.067495	0.014981	0.085010	0.125087	0.045018	0.040093	-0.015085	0.030106
-0.075166	-0.020110	0.055056	0.047638	-0.065111	0.017473	0.085020	0.130054	0.045012	0.039962	-0.014382	0.034529
-0.074657	-0.019833	0.054824	0.047245	-0.064741	0.017495	0.084975	0.135020	0.044946	0.040033	-0.010343	0.035059
-0.074689	-0.020474	0.054215	0.047581	-0.064452	0.016870	0.085005	0.139409	0.045454	0.039988	-0.009880	0.034964
-0.070042	-0.014869	0.055173	0.042456	-0.062608	0.020152	0.085042	0.140746	0.049935	0.040028	-0.010089	0.035059
-0.070076	-0.014654	0.055422	0.042365	-0.062749	0.020384	0.084974	0.144336	0.050471	0.039997	-0.009936	0.034910
-0.074989	-0.015088	0.059901	0.045038	-0.067445	0.022406	0.085002	0.145331	0.049814	0.039990	-0.009910	0.035310
-0.074534	-0.014973	0.059561	0.044753	-0.067047	0.022294	0.084942	0.149424	0.050083	0.039999	-0.005053	0.039403
-0.075169	-0.015026	0.060142	0.045098	-0.067656	0.022558	0.085094	0.150181	0.049953	0.040009	-0.004944	0.040051
-0.079459	-0.015007	0.064451	0.047233	-0.071955	0.024722	0.084881	0.154479	0.050035	0.039987	-0.005107	0.039975
-0.080242	-0.015007	0.065235	0.047625	-0.072738	0.025114	0.085145	0.160131	0.049953	0.039980	0.000092	0.039989
-0.079354	-0.015047	0.064307	0.047201	-0.071830	0.024630	0.084482	0.164830	0.049950	0.039977	-0.000581	0.039965
-0.075242	-0.014973	0.060269	0.045108	-0.067755	0.022648	0.085145	0.170718	0.050625	0.040025	0.000176	0.040035
-0.069744	-0.015092	0.054652	0.042418	-0.062198	0.019780	0.089460	0.180057	0.054997	0.039972	0.004410	0.039938
-0.065421	-0.014865	0.050556	0.040143	-0.057989	0.017845	0.090308	0.185136	0.059817	0.039975	0.005243	0.040073
-0.059360	-0.015569	0.043791	0.037464	-0.051575	0.014111	0.094382	0.184923	0.065474	0.039991	0.004202	0.039576
-0.056521	-0.014110	0.042412	0.035316	-0.049467	0.014151	0.095832	0.190361	0.069510	0.039602	0.005198	0.040316
-0.038239	-0.001217	0.037022	0.019728	-0.037631	0.017903	0.104388	0.204403	0.070274	0.040178	0.024372	0.054477
-0.007731	0.010656	0.018387	-0.001463	-0.013059	0.014522	0.115114	0.220170	0.084373	0.055453	0.040239	0.075089
-0.032429	0.024061	0.056490	0.004184	-0.044459	0.040276	0.119324	0.224407	0.079729	0.074421	0.044554	0.079565
-0.021777	0.035988	0.057765	-0.007105	-0.039771	0.046877	0.120205	0.225434	0.075464	0.070354	0.050925	0.080282
-0.004108	0.049662	0.053770	-0.022777	-0.028939	0.051716	0.119841	0.239808	0.094345	0.069789	0.054490	0.084168
0.009429	0.060820	0.051391	-0.035125	-0.020981	0.056106	0.120220	0.234931	0.095103	0.065152	0.055733	0.085948
0.004627	0.053064	0.048437	-0.028845	-0.021905	0.050750	0.119447	0.235960	0.095264	0.065031	0.059458	0.088928
0.005392	0.052531	0.047139	-0.028962	-0.020874	0.049835	0.120249	0.258991	0.119776	0.090531	0.061620	0.091634
0.044483	0.087390	0.042907	-0.065936	0.000788	0.065148	0.124296	0.271023	0.134540	0.104042	0.078569	0.108079
0.055000	0.102818	0.047818	-0.078909	0.003591	0.075318	0.126202	0.284094	0.140970	0.111270	0.096435	0.116554
0.030554	0.126942	0.096388	-0.078748	-0.032917	0.111665	0.143871	0.280216	0.158800	0.138975	0.118353	0.138115
0.019973	0.112600	0.092628	-0.066287	-0.036327	0.102614	0.140666	0.279632	0.155840	0.136224	0.111333	0.135898
0.004677	0.088046	0.083369	-0.046362	-0.039346	0.085707	0.134338	0.279844	0.149056	0.129088	0.104230	0.129012
-0.008655	0.072050	0.080706	-0.031697	-0.044680	0.076378	0.130382	0.280611	0.145721	0.125467	0.100075	0.125853
-0.027507	0.047034	0.074541	-0.009764	-0.051024	0.060787	0.129789	0.278938	0.139050	0.118806	0.094160	0.123981
-0.010589	0.059805	0.070395	-0.024608	-0.040492	0.065100	0.125217	0.281887	0.152003	0.136578	0.120852	0.136474
0.095478	0.160562	0.065085	-0.128020	0.015197	0.112824	0.119849	0.313356	0.193313	0.178586	0.164186	0.173630
0.103007	0.172907	0.069900	-0.137957	0.016553	0.121403	0.120113	0.306512	0.191328	0.185999	0.170597	0.181006
0.093304	0.168915	0.075611	-0.131110	0.008847	0.122263	0.114454	0.298629	0.189134	0.189944	0.174409	0.185016
0.100239	0.175857	0.075619	-0.138048	0.012310	0.125738	0.110180	0.295621	0.190442	0.195829	0.180311	0.190255
0.100208	0.174921	0.074713	-0.137565	0.012747	0.124817	0.109500	0.289684	0.185199	0.194692	0.180274	0.190330
0.104952	0.180268	0.075316	-0.142610	0.014818	0.127792	0.105149	0.285268	0.185091	0.190160	0.185114	0.194858
0.105621	0.180084	0.074463	-0.142852	0.015579	0.127273	0.105314	0.279353	0.184955	0.190362	0.189878	0.194959
0.093767	0.169861	0.076094	-0.131814	0.008837	0.122978	0.105173	0.270218	0.184513	0.190110	0.195101	0.195152
0.096971	0.165672	0.068702	-0.131321	0.014135	0.117187	0.099560	0.259950	0.180520	0.185375	0.194940	0.195460
0.127419	0.194649	0.067230	-0.161034	0.030094	0.130940	0.100094	0.250006	0.180046	0.185143	0.190003	0.200168
0.102176	0.209497	0.107321	-0.155836	-0.002573	0.158409	0.099833	0.239985	0.179412	0.184364	0.185024	0.205136
0.099187	0.200450	0.101263	-0.149818	-0.001038	0.150856	0.089971	0.230111	0.175778	0.180821	0.180123	0.200578
0.100871	0.189982	0.089111	-0.145426	0.005880	0.139546	0.084609	0.219960	0.174857	0.179827	0.174886	0.194933
0.094605	0.180108	0.085503	-0.137357	0.004551	0.132806	0.080070	0.209992	0.175245	0.180315	0.170462	0.190021
0.095496	0.169586	0.074090	-0.132541	0.010703	0.121838	0.074973	0.199954	0.175074	0.179606	0.170015	0.185004
0.094463	0.160125	0.065662	-0.127294	0.014401	0.112893	0.070007	0.190147	0.165591	0.165684	0.160654	0.180107
0.096506	0.154580	0.058074	-0.125543	0.019216	0.106327	0.065030	0.179826	0.154889	0.154403	0.149802	0.174464
0.088538	0.144965	0.056427	-0.116751	0.016056	0.100696	0.059999	0.170459	0.145033	0.145204	0.140191	0.165084
0.056227	0.135495	0.079268	-0.095861	-0.011521	0.107382	0.060458	0.164762	0.134964	0.134869	0.129503	0.154985
0.054698	0.129939	0.075242	-0.092318	-0.010272	0.102590	0.059897	0.149961	0.125066	0.125131	0.120148	0.145057
0.050109	0.120491	0.070383	-0.085300	-0.010137	0.095437	0.055522	0.139715	0.115507	0.115451	0.114518	0.134999
0.045039	0.109909	0.064871	-0.077474	-0.009916	0.087390	0.054764	0.129649	0.109857	0.109951	0.105164	0.125084
0.044919	0.105044	0.060125	-0.074981	-0.007603	0.082585	0.055479	0.115774	0.105471	0.104968	0.100310	0.119941
0.034938	0.095047	0.060109	-0.064993	-0.012586	0.077578	0.054932	0.103869	0.104993	0.100131	0.095193	0.110104
0.030125	0.084950	0.054826	-0.057537	-0.012351	0.069888	0.050451	0.095657	0.100349	0.094795	0.084499	0.099887
0.030043	0.080048	0.050005	-0.055045	-0.009981	0.065026	0.049927	0.104000	0.095299	0.090574	0.080164	0.095054
0.024365	0.069508	0.045143	-0.046937	-0.010389	0.057326	0.050061	0.096005	0.094680	0.089405	0.074668	0.084456
0.021043	0.060111	0.039068	-0.040577	-0.009013	0.049590	0.049365	0.084777	0.080566	0.076278	0.060572	0.075135
0.013420	0.054543	0.041123	-0.033981	-0.013852	0.047833	0.045557	0.075130	0.069490	0.064214	0.049443	0.070026
-0.023610	0.044963	0.068574	-0.010676	-0.046092	0.056769	0.044989	0.064825	0.059900	0.050401	0.035206	0.064925
-0.025650	0.035028	0.060678	-0.004689	-0.043164	0.047853	0.044436	0.055115	0.045391	0.039426	0.024840	0.060018
-0.030046	0.025278	0.055324	0.002384	-0.042685	0.040301	0.040671	0.045030	0.035163	0.025102	0.010360	0.054967
-0.028681	0.014987	0.043669	0.006847	-0.036175	0.029328	0.039929	0.040037	0.024684	0.015038	-0.000048	0.050567
-0.057717	-0.015082	0.042635	0.036400	-0.050176	0.013777	0.040047	0.040082	0.019912	0.010096	0.014855	0.049652
-0.136165	-0.039766	0.096400	0.087965	-0.116282	0.028317	0.039534	0.039463	0.020034	0.010351	0.025019	0.045071
-0.107544	-0.030167	0.077377	0.068856	-0.092460	0.023605	0.035103	0.035158	0.019990	0.009975	0.015375	0.039982
-0.074130	-0.020220	0.053910	0.047175	-0.064020	0.016845	0.034502	0.034441	0.019418	0.005372	0.009595	0.034960
-0.070108	-0.014781	0.055327	0.042445	-0.062717	0.020273	0.035207	0.035056	0.015263	0.005011	0.004813	0.030214
-0.059918	-0.005172	0.054746	0.032545	-0.057332	0.024787	0.034440	0.029934	0.014911	0.004498	-0.004505	0.029505
-0.049762	0.005390	0.055152	0.022186	-0.052457	0.030271	0.030157	0.030015	0.015060	0.000122	-0.009986	0.025094
-0.045355	0.009583	0.054938	0.017886	-0.050147	0.032261	0.029474	0.030035	0.014398	-0.000530	-0.015075	0.024511
-0.060059	-0.004979	0.055080	0.032519	-0.057570	0.025051	0.030182	0.024927	0.010301	0.000061	-0.019785	0.025138
-0.074463	-0.019482	0.054980	0.046972	-0.064722	0.017749	0.029892	0.025517	0.009930	-0.005047	-0.020057	0.024922
-0.075411	-0.035495	0.039915	0.055453	-0.057663	0.002210	0.030072	0.024883	0.010004	-0.004998	-0.019986	0.025026
-0.080373	-0.049155	0.031219	0.064764	-0.055796	-0.008968	0.029963	0.020481	0.010066	-0.004964	-0.020032	0.025039
-0.053502	-0.035946	0.017556	0.044724	-0.035529	-0.009195	0.030002	0.019958	0.009689	-0.010048	-0.020006	0.024702
-0.037549	-0.024172	0.013377	0.030860	-0.025463	-0.005398	0.030008	0.019589	0.005593	-0.009509	-0.020011	0.020562
-0.087097	-0.010776	0.076320	0.048937	-0.081708	0.032772	0.029978	0.015033	0.004941	-0.010086	-0.020010	0.019984
-0.077119	0.000608	0.077727	0.038256	-0.077423	0.039167	0.030079	0.014620	0.005079	-0.014584	-0.020008	0.019997
-0.058484	0.014986	0.073471	0.021749	-0.065977	0.044228	0.029681	0.014823	0.004706	-0.014927	-0.019977	0.019997
-0.050952	0.024663	0.075616	0.013144	-0.063284	0.050139	0.025580	0.010525	0.000557	-0.015600	-0.020020	0.019993
-0.054697	0.020497	0.075194	0.017100	-0.064945	0.047845	0.024976	0.009967	0.000011	-0.019333	-0.019967	0.020041
-0.060203	0.014936	0.075139	0.022633	-0.067671	0.045038	0.025003	0.010062	-0.000065	-0.020072	-0.020057	0.019416
-0.059927	0.010026	0.069952	0.024951	-0.064939	0.039989	0.024989	0.009843	0.000161	-0.019947	-0.019900	0.015310
-0.064723	0.005428	0.070151	0.029648	-0.067437	0.037789	0.024998	0.010471	-0.000649	-0.020440	-0.020125	0.014911
-0.064898	0.005035	0.069933	0.029932	-0.067416	0.037484	0.025008	0.009918	-0.004241	-0.024956	-0.019788	0.015049
-0.069760	0.000320	0.070080	0.034720	-0.069920	0.035200	0.024998	0.005461	-0.005727	-0.025422	-0.020365	0.014971
-0.074932	-0.004922	0.070011	0.039927	-0.072471	0.032544	0.024984	0.004931	-0.009517	-0.024938	-0.019091	0.015015
-0.080152	-0.010613	0.069539	0.045382	-0.074846	0.029463	0.025005	0.005042	-0.010738	-0.024685	-0.021104	0.014981
-0.078949	-0.013837	0.065112	0.046393	-0.072030	0.025638	0.024998	0.004954	-0.014225	-0.024922	-0.038693	0.015046
-0.081231	-0.016695	0.064536	0.048963	-0.072883	0.023920	0.025012	0.005096	-0.015722	-0.029754	-0.035790	0.014410
-0.103993	-0.038918	0.065075	0.071455	-0.084534	0.013079	0.024939	0.004679	-0.019578	-0.029722	-0.034154	0.010310
-0.080441	-0.015408	0.065033	0.047924	-0.072737	0.024813	0.025049	0.000593	-0.020611	-0.030707	-0.030591	0.009915
-0.055039	0.009305	0.064344	0.022867	-0.059691	0.036824	0.024905	-0.000048	-0.024845	-0.029356	-0.029317	0.010037
-0.095459	-0.035416	0.060043	0.065437	-0.077751	0.012313	0.025161	0.000025	-0.025041	-0.031246	-0.040486	0.009989
-0.133882	-0.074529	0.059353	0.104205	-0.096617	-0.007588	0.024611	-0.000073	-0.019962	-0.049220	-0.059158	0.009989
-0.070109	-0.009462	0.060647	0.039786	-0.065378	0.025592	0.024941	0.000312	-0.020509	-0.045902	-0.056103	0.010027
-0.005424	0.053287	0.058711	-0.023931	-0.032068	0.055999	0.029129	0.000018	-0.019906	-0.044860	-0.054207	0.009953
